FluxView - FluxMed acquisition system
Signal file
Serial Number	:
W version:	1.20h-OX-CO2	File version:	1.13
Sampling rate:	256 Hz
Time	Flow	Volume	Paw	Pes	Ptpulm	Pga	Ptdiaf	CO2	
0.00391	-5.4	-150	18.0	17.2	0.8	17.2	0.0	17.2	
0.00781	-4.5	-150	18.1	17.2	0.9	17.2	0.0	17.2	
0.01172	-3.5	-150	18.2	17.2	1.0	17.2	0.0	17.2	
0.01562	-2.5	-151	18.3	17.2	1.1	17.2	0.0	17.2	
0.01953	-1.6	-151	18.4	17.2	1.2	17.2	0.0	17.2	
0.02344	-0.8	-151	18.4	17.2	1.2	17.2	0.0	17.2	
0.02734	-0.2	-151	18.5	17.2	1.3	17.2	0.0	17.2	
0.03125	0.3	-151	18.4	17.2	1.2	17.2	0.0	17.2	
0.03516	0.8	-151	18.4	17.3	1.1	17.3	0.0	17.3	
0.03906	1.0	-151	18.3	17.3	1.0	17.3	0.0	17.3	
0.04297	1.2	-151	18.3	17.3	1.0	17.3	0.0	17.3	
0.04688	1.2	-151	18.2	17.3	0.9	17.3	0.0	17.3	
0.05078	1.1	-150	18.1	17.3	0.8	17.3	0.0	17.3	
0.05469	1.0	-150	18.1	17.3	0.8	17.3	0.0	17.3	
0.05859	0.8	-150	18.0	17.3	0.7	17.3	0.0	17.3	
0.06250	0.6	-150	18.0	17.3	0.7	17.3	0.0	17.3	
0.06641	0.3	-150	17.9	17.3	0.6	17.3	0.0	17.3	
0.07031	0.0	-150	17.9	17.3	0.6	17.3	0.0	17.3	
0.07422	-0.2	-150	17.8	17.3	0.5	17.3	0.0	17.3	
0.07812	-0.4	-150	17.8	17.3	0.5	17.3	0.0	17.3	
0.08203	-0.6	-150	17.8	17.3	0.5	17.3	0.0	17.3	
0.08594	-0.7	-150	17.8	17.3	0.5	17.3	0.0	17.3	
0.08984	-0.8	-150	17.8	17.2	0.6	17.2	0.0	17.2	
0.09375	-0.9	-151	17.8	17.3	0.5	17.3	0.0	17.3	
0.09766	-1.0	-151	17.9	17.3	0.6	17.3	0.0	17.3	
0.10156	-1.0	-151	17.9	17.3	0.6	17.3	0.0	17.3	
0.10547	-1.0	-151	18.0	17.3	0.7	17.3	0.0	17.3	
0.10938	-1.0	-151	18.0	17.3	0.7	17.3	0.0	17.3	
0.11328	-0.9	-151	18.0	17.3	0.7	17.3	0.0	17.3	
0.11719	-0.9	-151	18.1	17.3	0.8	17.3	0.0	17.3	
0.12109	-0.8	-151	18.1	17.3	0.8	17.3	0.0	17.3	
0.12500	-0.7	-151	18.1	17.3	0.8	17.3	0.0	17.3	
0.12891	-0.7	-151	18.2	17.3	0.9	17.3	0.0	17.3	
0.13281	-0.7	-151	18.2	17.3	0.9	17.3	0.0	17.3	
0.13672	-0.6	-151	18.2	17.3	0.9	17.3	0.0	17.3	
0.14062	-0.5	-151	18.2	17.3	0.9	17.3	0.0	17.3	
0.14453	-0.5	-151	18.2	17.3	0.9	17.3	0.0	17.3	
0.14844	-0.5	-151	18.2	17.3	0.9	17.3	0.0	17.3	
0.15234	-0.5	-151	18.3	17.4	0.9	17.4	0.0	17.4	
0.15625	-0.5	-151	18.3	17.4	0.9	17.4	0.0	17.4	
0.16016	-0.5	-151	18.3	17.4	0.9	17.4	0.0	17.4	
0.16406	-0.5	-151	18.3	17.4	0.9	17.4	0.0	17.4	
0.16797	-0.5	-151	18.3	17.4	0.9	17.4	0.0	17.4	
0.17188	-0.5	-151	18.3	17.4	0.9	17.4	0.0	17.4	
0.17578	-0.5	-151	18.3	17.4	0.9	17.4	0.0	17.4	
0.17969	-0.5	-151	18.3	17.5	0.8	17.5	0.0	17.5	
0.18359	-0.5	-152	18.3	17.5	0.8	17.5	0.0	17.5	
0.18750	-0.6	-152	18.3	17.5	0.8	17.5	0.0	17.5	
0.19141	-0.6	-152	18.3	17.5	0.8	17.5	0.0	17.5	
0.19531	-0.6	-152	18.3	17.5	0.8	17.5	0.0	17.5	
0.19922	-0.6	-152	18.3	17.5	0.8	17.5	0.0	17.5	
0.20312	-0.6	-152	18.4	17.5	0.9	17.5	0.0	17.5	
0.20703	-0.6	-152	18.4	17.5	0.9	17.5	0.0	17.5	
0.21094	-0.6	-152	18.4	17.5	0.9	17.5	0.0	17.5	
0.21484	-0.6	-152	18.4	17.5	0.9	17.5	0.0	17.5	
0.21875	-0.7	-152	18.4	17.6	0.8	17.6	0.0	17.6	
0.22266	-0.7	-152	18.4	17.6	0.8	17.6	0.0	17.6	
0.22656	-0.6	-152	18.4	17.5	0.9	17.5	0.0	17.5	
0.23047	-0.5	-152	18.5	17.6	0.9	17.6	0.0	17.6	
0.23438	-0.5	-152	18.5	17.6	0.9	17.6	0.0	17.6	
0.23828	-0.6	-152	18.5	17.6	0.9	17.6	0.0	17.6	
0.24219	-0.6	-152	18.5	17.6	0.9	17.6	0.0	17.6	
0.24609	-0.6	-152	18.5	17.6	0.9	17.6	0.0	17.6	
0.25000	-0.6	-152	18.5	17.6	0.9	17.6	0.0	17.6	
0.25391	-0.6	-152	18.6	17.6	1.0	17.6	0.0	17.6	
0.25781	-0.6	-152	18.6	17.6	1.0	17.6	0.0	17.6	
0.26172	-0.5	-152	18.6	17.6	1.0	17.6	0.0	17.6	
0.26562	-0.5	-152	18.6	17.6	1.0	17.6	0.0	17.6	
0.26953	-0.5	-152	18.6	17.6	1.0	17.6	0.0	17.6	
0.27344	-0.5	-152	18.6	17.6	1.0	17.6	0.0	17.6	
0.27734	-0.5	-152	18.6	17.6	1.0	17.6	0.0	17.6	
0.28125	-0.5	-152	18.6	17.6	1.0	17.6	0.0	17.6	
0.28516	-0.5	-152	18.6	17.6	1.0	17.6	0.0	17.6	
0.28906	-0.5	-153	18.6	17.6	1.0	17.6	0.0	17.6	
0.29297	-0.5	-153	18.5	17.6	0.9	17.6	0.0	17.6	
0.29688	-0.5	-153	18.5	17.6	0.9	17.6	0.0	17.6	
0.30078	-0.5	-153	18.5	17.6	0.9	17.6	0.0	17.6	
0.30469	-0.5	-153	18.5	17.6	0.9	17.6	0.0	17.6	
0.30859	-0.5	-153	18.5	17.6	0.9	17.6	0.0	17.6	
0.31250	-0.5	-153	18.5	17.6	0.9	17.6	0.0	17.6	
0.31641	-0.5	-153	18.5	17.6	0.9	17.6	0.0	17.6	
0.32031	-0.5	-153	18.5	17.6	0.9	17.6	0.0	17.6	
0.32422	-0.6	-153	18.5	17.6	0.9	17.6	0.0	17.6	
0.32812	-0.5	-153	18.5	17.6	0.9	17.6	0.0	17.6	
0.33203	-0.6	-153	18.5	17.6	0.9	17.6	0.0	17.6	
0.33594	-0.6	-153	18.5	17.6	0.9	17.6	0.0	17.6	
0.33984	-0.6	-153	18.6	17.6	1.0	17.6	0.0	17.6	
0.34375	-0.6	-153	18.6	17.7	0.9	17.7	0.0	17.7	
0.34766	-0.6	-153	18.6	17.7	0.9	17.7	0.0	17.7	
0.35156	-0.6	-153	18.6	17.7	0.9	17.7	0.0	17.7	
0.35547	-0.6	-153	18.6	17.7	0.9	17.7	0.0	17.7	
0.35938	-0.6	-153	18.6	17.7	0.9	17.7	0.0	17.7	
0.36328	-0.6	-153	18.7	17.7	1.0	17.7	0.0	17.7	
0.36719	-0.6	-153	18.7	17.8	0.9	17.8	0.0	17.8	
0.37109	-0.6	-153	18.7	17.8	0.9	17.8	0.0	17.8	
0.37500	-0.5	-153	18.7	17.8	0.9	17.8	0.0	17.8	
0.37891	-0.5	-153	18.7	17.8	0.9	17.8	0.0	17.8	
0.38281	-0.5	-153	18.7	17.8	0.9	17.8	0.0	17.8	
0.38672	-0.5	-153	18.7	17.8	0.9	17.8	0.0	17.8	
0.39062	-0.5	-153	18.7	17.8	0.9	17.8	0.0	17.8	
0.39453	-0.4	-153	18.7	17.8	0.9	17.8	0.0	17.8	
0.39844	-0.4	-153	18.6	17.9	0.7	17.9	0.0	17.9	
0.40234	-0.4	-154	18.6	17.9	0.7	17.9	0.0	17.9	
0.40625	-0.4	-154	18.6	17.9	0.7	17.9	0.0	17.9	
0.41016	-0.4	-154	18.6	17.9	0.7	17.9	0.0	17.9	
0.41406	-0.4	-154	18.5	17.9	0.6	17.9	0.0	17.9	
0.41797	-0.4	-154	18.5	17.9	0.6	17.9	0.0	17.9	
0.42188	-0.4	-154	18.5	17.9	0.6	17.9	0.0	17.9	
0.42578	-0.4	-154	18.5	17.8	0.7	17.8	0.0	17.8	
0.42969	-0.4	-154	18.5	17.8	0.7	17.8	0.0	17.8	
0.43359	-0.5	-154	18.5	17.8	0.7	17.8	0.0	17.8	
0.43750	-0.5	-154	18.5	17.8	0.7	17.8	0.0	17.8	
0.44141	-0.5	-154	18.5	17.8	0.7	17.8	0.0	17.8	
0.44531	-0.6	-154	18.5	17.8	0.7	17.8	0.0	17.8	
0.44922	-0.6	-154	18.5	17.8	0.7	17.8	0.0	17.8	
0.45312	-0.7	-154	18.5	17.7	0.8	17.7	0.0	17.7	
0.45703	-0.7	-154	18.6	17.7	0.9	17.7	0.0	17.7	
0.46094	-0.8	-154	18.6	17.7	0.9	17.7	0.0	17.7	
0.46484	-0.8	-154	18.6	17.7	0.9	17.7	0.0	17.7	
0.46875	-0.9	-154	18.7	17.7	1.0	17.7	0.0	17.7	
0.47266	-0.9	-154	18.7	17.7	1.0	17.7	0.0	17.7	
0.47656	-0.9	-154	18.8	17.7	1.1	17.7	0.0	17.7	
0.48047	-0.9	-154	18.8	17.7	1.1	17.7	0.0	17.7	
0.48438	-0.8	-154	18.8	17.7	1.1	17.7	0.0	17.7	
0.48828	-0.8	-154	18.9	17.7	1.2	17.7	0.0	17.7	
0.49219	-0.8	-154	18.9	17.7	1.2	17.7	0.0	17.7	
0.49609	-0.7	-154	18.9	17.7	1.2	17.7	0.0	17.7	
0.50000	-0.7	-155	19.0	17.7	1.3	17.7	0.0	17.7	
0.50391	-0.7	-155	19.0	17.7	1.3	17.7	0.0	17.7	
0.50781	-0.6	-155	19.0	17.7	1.3	17.7	0.0	17.7	
0.51172	-0.5	-155	19.0	17.7	1.3	17.7	0.0	17.7	
0.51562	-0.5	-155	19.0	17.7	1.3	17.7	0.0	17.7	
0.51953	-0.5	-155	19.0	17.7	1.3	17.7	0.0	17.7	
0.52344	-0.5	-155	19.0	17.7	1.3	17.7	0.0	17.7	
0.52734	-0.5	-155	19.0	17.7	1.3	17.7	0.0	17.7	
0.53125	-0.4	-155	19.0	17.7	1.3	17.7	0.0	17.7	
0.53516	-0.4	-155	19.0	17.7	1.3	17.7	0.0	17.7	
0.53906	-0.5	-155	19.0	17.7	1.3	17.7	0.0	17.7	
0.54297	-0.5	-155	19.0	17.8	1.2	17.8	0.0	17.8	
0.54688	-0.5	-155	19.0	17.8	1.2	17.8	0.0	17.8	
0.55078	-0.5	-155	19.0	17.8	1.2	17.8	0.0	17.8	
0.55469	-0.5	-155	19.0	17.8	1.2	17.8	0.0	17.8	
0.55859	-0.5	-155	18.9	17.8	1.1	17.8	0.0	17.8	
0.56250	-0.5	-155	18.9	17.8	1.1	17.8	0.0	17.8	
0.56641	-0.5	-155	18.9	17.8	1.1	17.8	0.0	17.8	
0.57031	-0.5	-155	18.9	17.8	1.1	17.8	0.0	17.8	
0.57422	-0.4	-155	18.9	17.8	1.1	17.8	0.0	17.8	
0.57812	-0.5	-155	18.9	17.8	1.1	17.8	0.0	17.8	
0.58203	-0.5	-155	18.9	17.8	1.1	17.8	0.0	17.8	
0.58594	-0.4	-155	18.9	17.8	1.1	17.8	0.0	17.8	
0.58984	-0.4	-155	18.9	17.8	1.1	17.8	0.0	17.8	
0.59375	-0.5	-155	18.8	17.8	1.0	17.8	0.0	17.8	
0.59766	-0.5	-155	18.8	17.8	1.0	17.8	0.0	17.8	
0.60156	-0.4	-155	18.8	17.8	1.0	17.8	0.0	17.8	
0.60547	-0.4	-155	18.8	17.8	1.0	17.8	0.0	17.8	
0.60938	-0.4	-155	18.8	17.8	1.0	17.8	0.0	17.8	
0.61328	-0.4	-155	18.8	17.8	1.0	17.8	0.0	17.8	
0.61719	-0.4	-155	18.7	17.8	0.9	17.8	0.0	17.8	
0.62109	-0.4	-156	18.7	17.8	0.9	17.8	0.0	17.8	
0.62500	-0.5	-156	18.7	17.8	0.9	17.8	0.0	17.8	
0.62891	-0.5	-156	18.7	17.8	0.9	17.8	0.0	17.8	
0.63281	-0.5	-156	18.7	17.8	0.9	17.8	0.0	17.8	
0.63672	-0.5	-156	18.7	17.8	0.9	17.8	0.0	17.8	
0.64062	-0.5	-156	18.7	17.8	0.9	17.8	0.0	17.8	
0.64453	-0.5	-156	18.7	17.8	0.9	17.8	0.0	17.8	
0.64844	-0.5	-156	18.7	17.8	0.9	17.8	0.0	17.8	
0.65234	-0.5	-156	18.7	17.8	0.9	17.8	0.0	17.8	
0.65625	-0.5	-156	18.7	17.8	0.9	17.8	0.0	17.8	
0.66016	-0.5	-156	18.7	17.8	0.9	17.8	0.0	17.8	
0.66406	-0.6	-156	18.7	17.8	0.9	17.8	0.0	17.8	
0.66797	-0.6	-156	18.7	17.8	0.9	17.8	0.0	17.8	
0.67188	-0.6	-156	18.7	17.8	0.9	17.8	0.0	17.8	
0.67578	-0.5	-156	18.7	17.8	0.9	17.8	0.0	17.8	
0.67969	-0.5	-156	18.7	17.8	0.9	17.8	0.0	17.8	
0.68359	-0.5	-156	18.7	17.8	0.9	17.8	0.0	17.8	
0.68750	-0.5	-156	18.7	17.8	0.9	17.8	0.0	17.8	
0.69141	-0.5	-156	18.7	17.8	0.9	17.8	0.0	17.8	
0.69531	-0.5	-156	18.7	17.8	0.9	17.8	0.0	17.8	
0.69922	-0.5	-156	18.7	17.8	0.9	17.8	0.0	17.8	
0.70312	-0.5	-156	18.7	17.8	0.9	17.8	0.0	17.8	
0.70703	-0.5	-156	18.7	17.8	0.9	17.8	0.0	17.8	
0.71094	-0.5	-156	18.7	17.8	0.9	17.8	0.0	17.8	
0.71484	-0.5	-156	18.7	17.9	0.8	17.9	0.0	17.9	
0.71875	-0.5	-156	18.7	17.9	0.8	17.9	0.0	17.9	
0.72266	-0.5	-156	18.7	17.9	0.8	17.9	0.0	17.9	
0.72656	-0.5	-156	18.7	17.9	0.8	17.9	0.0	17.9	
0.73047	-0.5	-156	18.7	17.9	0.8	17.9	0.0	17.9	
0.73438	-0.5	-156	18.7	17.9	0.8	17.9	0.0	17.9	
0.73828	-0.5	-156	18.7	17.9	0.8	17.9	0.0	17.9	
0.74219	-0.5	-157	18.7	17.9	0.8	17.9	0.0	17.9	
0.74609	-0.6	-157	18.7	17.9	0.8	17.9	0.0	17.9	
0.75000	-0.6	-157	18.7	17.9	0.8	17.9	0.0	17.9	
0.75391	-0.6	-157	18.7	17.9	0.8	17.9	0.0	17.9	
0.75781	-0.5	-157	18.7	17.9	0.8	17.9	0.0	17.9	
0.76172	-0.5	-157	18.6	17.9	0.7	17.9	0.0	17.9	
0.76562	-0.5	-157	18.7	17.9	0.8	17.9	0.0	17.9	
0.76953	-0.5	-157	18.7	17.9	0.8	17.9	0.0	17.9	
0.77344	-0.5	-157	18.7	17.9	0.8	17.9	0.0	17.9	
0.77734	-0.6	-157	18.7	17.9	0.8	17.9	0.0	17.9	
0.78125	-0.6	-157	18.7	17.9	0.8	17.9	0.0	17.9	
0.78516	-0.6	-157	18.7	17.9	0.8	17.9	0.0	17.9	
0.78906	-0.6	-157	18.7	17.9	0.8	17.9	0.0	17.9	
0.79297	-0.6	-157	18.7	17.9	0.8	17.9	0.0	17.9	
0.79688	-0.5	-157	18.7	17.9	0.8	17.9	0.0	17.9	
0.80078	-0.6	-157	18.7	17.9	0.8	17.9	0.0	17.9	
0.80469	-0.6	-157	18.7	17.9	0.8	17.9	0.0	17.9	
0.80859	-0.6	-157	18.7	17.9	0.8	17.9	0.0	17.9	
0.81250	-0.5	-157	18.7	17.9	0.8	17.9	0.0	17.9	
0.81641	-0.5	-157	18.8	17.9	0.9	17.9	0.0	17.9	
0.82031	-0.5	-157	18.8	17.9	0.9	17.9	0.0	17.9	
0.82422	-0.5	-157	18.7	17.9	0.8	17.9	0.0	17.9	
0.82812	-0.5	-157	18.7	17.9	0.8	17.9	0.0	17.9	
0.83203	-0.5	-157	18.7	17.9	0.8	17.9	0.0	17.9	
0.83594	-0.5	-157	18.7	17.9	0.8	17.9	0.0	17.9	
0.83984	-0.5	-157	18.7	17.9	0.8	17.9	0.0	17.9	
0.84375	-0.5	-157	18.7	17.9	0.8	17.9	0.0	17.9	
0.84766	-0.5	-157	18.7	17.9	0.8	17.9	0.0	17.9	
0.85156	-0.5	-158	18.7	17.9	0.8	17.9	0.0	17.9	
0.85547	-0.5	-158	18.7	17.9	0.8	17.9	0.0	17.9	
0.85938	-0.5	-158	18.7	17.9	0.8	17.9	0.0	17.9	
0.86328	-0.5	-158	18.7	17.9	0.8	17.9	0.0	17.9	
0.86719	-0.5	-158	18.7	17.9	0.8	17.9	0.0	17.9	
0.87109	-0.6	-158	18.7	17.9	0.8	17.9	0.0	17.9	
0.87500	-0.6	-158	18.7	17.9	0.8	17.9	0.0	17.9	
0.87891	-0.6	-158	18.7	17.9	0.8	17.9	0.0	17.9	
0.88281	-0.6	-158	18.7	17.9	0.8	17.9	0.0	17.9	
0.88672	-0.6	-158	18.7	17.9	0.8	17.9	0.0	17.9	
0.89062	-0.6	-158	18.7	17.9	0.8	17.9	0.0	17.9	
0.89453	-0.6	-158	18.7	17.9	0.8	17.9	0.0	17.9	
0.89844	-0.6	-158	18.7	17.9	0.8	17.9	0.0	17.9	
0.90234	-0.6	-158	18.8	17.9	0.9	17.9	0.0	17.9	
0.90625	-0.6	-158	18.8	17.9	0.9	17.9	0.0	17.9	
0.91016	-0.6	-158	18.8	17.9	0.9	17.9	0.0	17.9	
0.91406	-0.6	-158	18.8	17.9	0.9	17.9	0.0	17.9	
0.91797	-0.6	-158	18.8	17.9	0.9	17.9	0.0	17.9	
0.92188	-0.6	-158	18.8	17.9	0.9	17.9	0.0	17.9	
0.92578	-0.6	-158	18.8	17.9	0.9	17.9	0.0	17.9	
0.92969	-0.6	-158	18.8	18.0	0.8	18.0	0.0	18.0	
0.93359	-0.5	-158	18.8	18.0	0.8	18.0	0.0	18.0	
0.93750	-0.5	-158	18.8	18.0	0.8	18.0	0.0	18.0	
0.94141	-0.5	-158	18.8	18.0	0.8	18.0	0.0	18.0	
0.94531	-0.5	-158	18.8	18.0	0.8	18.0	0.0	18.0	
0.94922	-0.4	-158	18.8	18.0	0.8	18.0	0.0	18.0	
0.95312	-0.4	-158	18.7	18.0	0.7	18.0	0.0	18.0	
0.95703	-0.4	-158	18.7	18.0	0.7	18.0	0.0	18.0	
0.96094	-0.3	-158	18.7	18.0	0.7	18.0	0.0	18.0	
0.96484	-0.3	-159	18.7	18.0	0.7	18.0	0.0	18.0	
0.96875	-0.3	-159	18.6	18.0	0.6	18.0	0.0	18.0	
0.97266	-0.3	-159	18.6	18.0	0.6	18.0	0.0	18.0	
0.97656	-0.4	-159	18.6	18.0	0.6	18.0	0.0	18.0	
0.98047	-0.4	-159	18.6	18.0	0.6	18.0	0.0	18.0	
0.98438	-0.4	-159	18.5	18.0	0.5	18.0	0.0	18.0	
0.98828	-0.5	-159	18.5	18.0	0.5	18.0	0.0	18.0	
0.99219	-0.5	-159	18.5	18.0	0.5	18.0	0.0	18.0	
0.99609	-0.5	-159	18.5	17.9	0.6	17.9	0.0	17.9	
1.00000	-0.6	-159	18.5	17.9	0.6	17.9	0.0	17.9	
1.00391	-0.6	-159	18.6	17.9	0.7	17.9	0.0	17.9	
1.00781	-0.7	-159	18.6	17.9	0.7	17.9	0.0	17.9	
1.01172	-0.7	-159	18.6	17.9	0.7	17.9	0.0	17.9	
1.01562	-0.8	-159	18.6	17.8	0.8	17.8	0.0	17.8	
1.01953	-0.8	-159	18.7	17.8	0.9	17.8	0.0	17.8	
1.02344	-0.8	-159	18.7	17.8	0.9	17.8	0.0	17.8	
1.02734	-0.8	-159	18.7	17.8	0.9	17.8	0.0	17.8	
1.03125	-0.8	-159	18.8	17.8	1.0	17.8	0.0	17.8	
1.03516	-0.8	-159	18.9	17.8	1.1	17.8	0.0	17.8	
1.03906	-0.8	-159	18.9	17.8	1.1	17.8	0.0	17.8	
1.04297	-0.8	-159	18.9	17.8	1.1	17.8	0.0	17.8	
1.04688	-0.8	-159	18.9	17.8	1.1	17.8	0.0	17.8	
1.05078	-0.7	-159	19.0	17.8	1.2	17.8	0.0	17.8	
1.05469	-0.7	-159	19.0	17.8	1.2	17.8	0.0	17.8	
1.05859	-0.6	-159	19.0	17.8	1.2	17.8	0.0	17.8	
1.06250	-0.6	-160	19.0	17.8	1.2	17.8	0.0	17.8	
1.06641	-0.6	-160	19.0	17.8	1.2	17.8	0.0	17.8	
1.07031	-0.5	-160	19.0	17.8	1.2	17.8	0.0	17.8	
1.07422	-0.5	-160	19.0	17.8	1.2	17.8	0.0	17.8	
1.07812	-0.5	-160	19.0	17.8	1.2	17.8	0.0	17.8	
1.08203	-0.4	-160	19.0	17.8	1.2	17.8	0.0	17.8	
1.08594	-0.5	-160	19.0	17.8	1.2	17.8	0.0	17.8	
1.08984	-0.5	-160	19.0	17.8	1.2	17.8	0.0	17.8	
1.09375	-0.5	-160	19.0	17.8	1.2	17.8	0.0	17.8	
1.09766	-0.5	-160	19.0	17.8	1.2	17.8	0.0	17.8	
1.10156	-0.5	-160	18.9	17.8	1.1	17.8	0.0	17.8	
1.10547	-0.5	-160	18.9	17.8	1.1	17.8	0.0	17.8	
1.10938	-0.4	-160	18.9	17.8	1.1	17.8	0.0	17.8	
1.11328	-0.4	-160	18.9	17.8	1.1	17.8	0.0	17.8	
1.11719	-0.5	-160	18.9	17.8	1.1	17.8	0.0	17.8	
1.12109	-0.5	-160	18.9	17.8	1.1	17.8	0.0	17.8	
1.12500	-0.5	-160	18.9	17.8	1.1	17.8	0.0	17.8	
1.12891	-0.5	-160	18.8	17.8	1.0	17.8	0.0	17.8	
1.13281	-0.5	-160	18.8	17.8	1.0	17.8	0.0	17.8	
1.13672	-0.4	-160	18.8	17.8	1.0	17.8	0.0	17.8	
1.14062	-0.5	-160	18.8	17.8	1.0	17.8	0.0	17.8	
1.14453	-0.5	-160	18.8	17.8	1.0	17.8	0.0	17.8	
1.14844	-0.4	-160	18.8	17.8	1.0	17.8	0.0	17.8	
1.15234	-0.4	-160	18.7	17.8	0.9	17.8	0.0	17.8	
1.15625	-0.4	-160	18.7	17.8	0.9	17.8	0.0	17.8	
1.16016	-0.4	-160	18.7	17.8	0.9	17.8	0.0	17.8	
1.16406	-0.4	-160	18.7	17.8	0.9	17.8	0.0	17.8	
1.16797	-0.4	-160	18.7	17.8	0.9	17.8	0.0	17.8	
1.17188	-0.4	-160	18.7	17.8	0.9	17.8	0.0	17.8	
1.17578	-0.4	-160	18.6	17.8	0.8	17.8	0.0	17.8	
1.17969	-0.4	-160	18.6	17.8	0.8	17.8	0.0	17.8	
1.18359	-0.5	-160	18.6	17.8	0.8	17.8	0.0	17.8	
1.18750	-0.5	-161	18.6	17.8	0.8	17.8	0.0	17.8	
1.19141	-0.5	-161	18.6	17.8	0.8	17.8	0.0	17.8	
1.19531	-0.5	-161	18.6	17.8	0.8	17.8	0.0	17.8	
1.19922	-0.6	-161	18.6	17.8	0.8	17.8	0.0	17.8	
1.20312	-0.5	-161	18.6	17.8	0.8	17.8	0.0	17.8	
1.20703	-0.6	-161	18.6	17.7	0.9	17.7	0.0	17.7	
1.21094	-0.6	-161	18.6	17.7	0.9	17.7	0.0	17.7	
1.21484	-0.5	-161	18.6	17.8	0.8	17.8	0.0	17.8	
1.21875	-0.6	-161	18.6	17.8	0.8	17.8	0.0	17.8	
1.22266	-0.6	-161	18.6	17.7	0.9	17.7	0.0	17.7	
1.22656	-0.6	-161	18.6	17.7	0.9	17.7	0.0	17.7	
1.23047	-0.6	-161	18.7	17.7	1.0	17.7	0.0	17.7	
1.23438	-0.6	-161	18.7	17.7	1.0	17.7	0.0	17.7	
1.23828	-0.6	-161	18.7	17.7	1.0	17.7	0.0	17.7	
1.24219	-0.6	-161	18.7	17.8	0.9	17.8	0.0	17.8	
1.24609	-0.5	-161	18.7	17.8	0.9	17.8	0.0	17.8	
1.25000	-0.6	-161	18.7	17.8	0.9	17.8	0.0	17.8	
1.25391	-0.6	-161	18.7	17.8	0.9	17.8	0.0	17.8	
1.25781	-0.5	-161	18.7	17.8	0.9	17.8	0.0	17.8	
1.26172	-0.5	-161	18.7	17.8	0.9	17.8	0.0	17.8	
1.26562	-0.5	-161	18.7	17.8	0.9	17.8	0.0	17.8	
1.26953	-0.5	-161	18.7	17.8	0.9	17.8	0.0	17.8	
1.27344	-0.5	-161	18.7	17.8	0.9	17.8	0.0	17.8	
1.27734	-0.5	-161	18.7	17.8	0.9	17.8	0.0	17.8	
1.28125	-0.5	-161	18.7	17.8	0.9	17.8	0.0	17.8	
1.28516	-0.5	-161	18.7	17.8	0.9	17.8	0.0	17.8	
1.28906	-0.5	-161	18.7	17.8	0.9	17.8	0.0	17.8	
1.29297	-0.5	-161	18.7	17.8	0.9	17.8	0.0	17.8	
1.29688	-0.5	-161	18.7	17.9	0.8	17.9	0.0	17.9	
1.30078	-0.6	-162	18.7	17.9	0.8	17.9	0.0	17.9	
1.30469	-0.6	-162	18.7	17.9	0.8	17.9	0.0	17.9	
1.30859	-0.6	-162	18.8	17.9	0.9	17.9	0.0	17.9	
1.31250	-0.6	-162	18.8	17.9	0.9	17.9	0.0	17.9	
1.31641	-0.6	-162	18.8	17.9	0.9	17.9	0.0	17.9	
1.32031	-0.6	-162	18.8	17.9	0.9	17.9	0.0	17.9	
1.32422	-0.6	-162	18.8	17.9	0.9	17.9	0.0	17.9	
1.32812	-0.6	-162	18.8	17.9	0.9	17.9	0.0	17.9	
1.33203	-0.6	-162	18.8	17.9	0.9	17.9	0.0	17.9	
1.33594	-0.6	-162	18.8	17.9	0.9	17.9	0.0	17.9	
1.33984	-0.6	-162	18.8	17.9	0.9	17.9	0.0	17.9	
1.34375	-0.6	-162	18.8	17.9	0.9	17.9	0.0	17.9	
1.34766	-0.6	-162	18.9	17.9	1.0	17.9	0.0	17.9	
1.35156	-0.6	-162	18.9	17.9	1.0	17.9	0.0	17.9	
1.35547	-0.6	-162	18.9	17.9	1.0	17.9	0.0	17.9	
1.35938	-0.6	-162	18.9	17.9	1.0	17.9	0.0	17.9	
1.36328	-0.6	-162	18.9	17.9	1.0	17.9	0.0	17.9	
1.36719	-0.6	-162	18.9	17.9	1.0	17.9	0.0	17.9	
1.37109	-0.5	-162	18.9	17.9	1.0	17.9	0.0	17.9	
1.37500	-0.5	-162	18.9	17.9	1.0	17.9	0.0	17.9	
1.37891	-0.6	-162	18.9	17.9	1.0	17.9	0.0	17.9	
1.38281	-0.6	-162	19.0	17.9	1.1	17.9	0.0	17.9	
1.38672	-0.5	-162	19.0	17.9	1.1	17.9	0.0	17.9	
1.39062	-0.5	-162	19.0	17.9	1.1	17.9	0.0	17.9	
1.39453	-0.5	-162	19.0	17.9	1.1	17.9	0.0	17.9	
1.39844	-0.5	-162	19.0	17.9	1.1	17.9	0.0	17.9	
1.40234	-0.5	-162	18.9	17.9	1.0	17.9	0.0	17.9	
1.40625	-0.5	-163	18.9	17.9	1.0	17.9	0.0	17.9	
1.41016	-0.5	-163	18.9	17.9	1.0	17.9	0.0	17.9	
1.41406	-0.5	-163	18.9	17.9	1.0	17.9	0.0	17.9	
1.41797	-0.5	-163	18.9	17.9	1.0	17.9	0.0	17.9	
1.42188	-0.5	-163	18.9	17.9	1.0	17.9	0.0	17.9	
1.42578	-0.5	-163	18.9	17.9	1.0	17.9	0.0	17.9	
1.42969	-0.5	-163	18.9	17.9	1.0	17.9	0.0	17.9	
1.43359	-0.5	-163	18.9	17.9	1.0	17.9	0.0	17.9	
1.43750	-0.5	-163	18.9	17.9	1.0	17.9	0.0	17.9	
1.44141	-0.6	-163	18.9	17.9	1.0	17.9	0.0	17.9	
1.44531	-0.6	-163	18.9	17.9	1.0	17.9	0.0	17.9	
1.44922	-0.6	-163	18.9	17.9	1.0	17.9	0.0	17.9	
1.45312	-0.6	-163	18.9	17.9	1.0	17.9	0.0	17.9	
1.45703	-0.6	-163	18.9	17.9	1.0	17.9	0.0	17.9	
1.46094	-0.6	-163	18.9	17.9	1.0	17.9	0.0	17.9	
1.46484	-0.6	-163	18.9	17.9	1.0	17.9	0.0	17.9	
1.46875	-0.6	-163	19.0	18.0	1.0	18.0	0.0	18.0	
1.47266	-0.6	-163	19.0	18.0	1.0	18.0	0.0	18.0	
1.47656	-0.6	-163	19.0	18.0	1.0	18.0	0.0	18.0	
1.48047	-0.6	-163	19.0	18.0	1.0	18.0	0.0	18.0	
1.48438	-0.6	-163	19.0	18.0	1.0	18.0	0.0	18.0	
1.48828	-0.5	-163	19.0	18.0	1.0	18.0	0.0	18.0	
1.49219	-0.5	-163	19.0	18.1	0.9	18.1	0.0	18.1	
1.49609	-0.5	-163	19.0	18.1	0.9	18.1	0.0	18.1	
1.50000	-0.5	-163	19.0	18.1	0.9	18.1	0.0	18.1	
1.50391	-0.4	-163	19.0	18.1	0.9	18.1	0.0	18.1	
1.50781	-0.4	-163	19.0	18.1	0.9	18.1	0.0	18.1	
1.51172	-0.4	-163	18.9	18.1	0.8	18.1	0.0	18.1	
1.51562	-0.4	-163	18.9	18.1	0.8	18.1	0.0	18.1	
1.51953	-0.3	-164	18.9	18.1	0.8	18.1	0.0	18.1	
1.52344	-0.4	-164	18.9	18.1	0.8	18.1	0.0	18.1	
1.52734	-0.4	-164	18.9	18.1	0.8	18.1	0.0	18.1	
1.53125	-0.3	-164	18.8	18.1	0.7	18.1	0.0	18.1	
1.53516	-0.4	-164	18.8	18.1	0.7	18.1	0.0	18.1	
1.53906	-0.4	-164	18.8	18.1	0.7	18.1	0.0	18.1	
1.54297	-0.4	-164	18.8	18.1	0.7	18.1	0.0	18.1	
1.54688	-0.5	-164	18.8	18.1	0.7	18.1	0.0	18.1	
1.55078	-0.5	-164	18.8	18.0	0.8	18.0	0.0	18.0	
1.55469	-0.6	-164	18.8	18.0	0.8	18.0	0.0	18.0	
1.55859	-0.6	-164	18.8	18.0	0.8	18.0	0.0	18.0	
1.56250	-0.7	-164	18.8	18.0	0.8	18.0	0.0	18.0	
1.56641	-0.7	-164	18.9	18.0	0.9	18.0	0.0	18.0	
1.57031	-0.8	-164	18.9	18.0	0.9	18.0	0.0	18.0	
1.57422	-0.8	-164	18.9	18.0	0.9	18.0	0.0	18.0	
1.57812	-0.9	-164	19.0	17.9	1.1	17.9	0.0	17.9	
1.58203	-0.9	-164	19.0	17.9	1.1	17.9	0.0	17.9	
1.58594	-0.9	-164	19.1	17.9	1.2	17.9	0.0	17.9	
1.58984	-0.9	-164	19.1	17.9	1.2	17.9	0.0	17.9	
1.59375	-0.9	-164	19.2	17.9	1.3	17.9	0.0	17.9	
1.59766	-0.9	-164	19.2	17.9	1.3	17.9	0.0	17.9	
1.60156	-0.8	-164	19.2	17.9	1.3	17.9	0.0	17.9	
1.60547	-0.7	-164	19.3	17.9	1.4	17.9	0.0	17.9	
1.60938	-0.7	-164	19.3	17.9	1.4	17.9	0.0	17.9	
1.61328	-0.7	-165	19.3	17.9	1.4	17.9	0.0	17.9	
