FluxView - FluxMed acquisition system
Signal file
Serial Number	:
W version:	1.20h-OX-CO2	File version:	1.13
Sampling rate:	256 Hz
Time	Flow	Volume	Paw	Pes	Ptpulm	Pga	Ptdiaf	CO2	
0.00391	-4.8	973	15.8	15.8	0.0	15.8	0.0	15.8	
0.00781	-4.9	973	15.8	15.8	0.0	15.8	0.0	15.8	
0.01172	-4.8	973	15.8	15.8	0.0	15.8	0.0	15.8	
0.01562	-4.8	972	15.8	15.8	0.0	15.8	0.0	15.8	
0.01953	-4.8	972	15.8	15.8	0.0	15.8	0.0	15.8	
0.02344	-4.8	972	15.8	15.8	0.0	15.8	0.0	15.8	
0.02734	-4.7	971	15.9	15.7	0.2	15.7	0.0	15.7	
0.03125	-4.7	971	15.8	15.7	0.1	15.7	0.0	15.7	
0.03516	-4.7	971	15.9	15.8	0.1	15.8	0.0	15.8	
0.03906	-4.6	971	15.8	15.8	0.0	15.8	0.0	15.8	
0.04297	-4.6	970	15.8	15.8	0.0	15.8	0.0	15.8	
0.04688	-4.5	970	15.8	15.7	0.1	15.7	0.0	15.7	
0.05078	-4.4	970	15.8	15.8	0.0	15.8	0.0	15.8	
0.05469	-4.4	969	15.8	15.8	0.0	15.8	0.0	15.8	
0.05859	-4.4	969	15.8	15.8	0.0	15.8	0.0	15.8	
0.06250	-4.3	969	15.8	15.8	0.0	15.8	0.0	15.8	
0.06641	-4.3	969	15.9	15.8	0.1	15.8	0.0	15.8	
0.07031	-4.1	968	15.9	15.8	0.1	15.8	0.0	15.8	
0.07422	-3.9	968	16.0	15.8	0.2	15.8	0.0	15.8	
0.07812	-3.6	968	16.1	15.8	0.3	15.8	0.0	15.8	
0.08203	-3.2	968	16.2	15.8	0.4	15.8	0.0	15.8	
0.08594	-2.8	967	16.2	15.8	0.4	15.8	0.0	15.8	
0.08984	-2.4	967	16.3	15.9	0.4	15.9	0.0	15.9	
0.09375	-2.0	967	16.3	15.9	0.4	15.9	0.0	15.9	
0.09766	-1.6	967	16.4	15.9	0.5	15.9	0.0	15.9	
0.10156	-1.2	967	16.5	15.9	0.6	15.9	0.0	15.9	
0.10547	-0.8	967	16.6	15.9	0.7	15.9	0.0	15.9	
0.10938	-0.4	967	16.7	15.9	0.8	15.9	0.0	15.9	
0.11328	-0.1	967	16.7	15.9	0.8	15.9	0.0	15.9	
0.11719	0.1	967	16.7	15.9	0.8	15.9	0.0	15.9	
0.12109	0.4	967	16.8	15.9	0.9	15.9	0.0	15.9	
0.12500	0.5	967	16.7	15.9	0.8	15.9	0.0	15.9	
0.12891	0.5	967	16.7	16.0	0.7	16.0	0.0	16.0	
0.13281	0.6	967	16.7	16.0	0.7	16.0	0.0	16.0	
0.13672	0.6	967	16.7	16.0	0.7	16.0	0.0	16.0	
0.14062	0.6	967	16.7	16.0	0.7	16.0	0.0	16.0	
0.14453	0.6	967	16.7	16.0	0.7	16.0	0.0	16.0	
0.14844	0.5	967	16.7	16.0	0.7	16.0	0.0	16.0	
0.15234	0.5	967	16.7	16.0	0.7	16.0	0.0	16.0	
0.15625	0.4	967	16.7	16.1	0.6	16.1	0.0	16.1	
0.16016	0.3	967	16.7	16.1	0.6	16.1	0.0	16.1	
0.16406	0.2	967	16.6	16.1	0.5	16.1	0.0	16.1	
0.16797	0.2	967	16.6	16.1	0.5	16.1	0.0	16.1	
0.17188	0.2	967	16.6	16.1	0.5	16.1	0.0	16.1	
0.17578	0.1	967	16.6	16.1	0.5	16.1	0.0	16.1	
0.17969	0.1	967	16.7	16.2	0.5	16.2	0.0	16.2	
0.18359	0.1	967	16.7	16.2	0.5	16.2	0.0	16.2	
0.18750	0.1	967	16.7	16.2	0.5	16.2	0.0	16.2	
0.19141	0.1	967	16.7	16.2	0.5	16.2	0.0	16.2	
0.19531	0.1	967	16.7	16.2	0.5	16.2	0.0	16.2	
0.19922	0.1	967	16.7	16.2	0.5	16.2	0.0	16.2	
0.20312	0.1	967	16.7	16.2	0.5	16.2	0.0	16.2	
0.20703	0.1	967	16.7	16.2	0.5	16.2	0.0	16.2	
0.21094	0.1	967	16.8	16.2	0.6	16.2	0.0	16.2	
0.21484	0.2	967	16.8	16.2	0.6	16.2	0.0	16.2	
0.21875	0.2	967	16.8	16.2	0.6	16.2	0.0	16.2	
0.22266	0.2	967	16.8	16.2	0.6	16.2	0.0	16.2	
0.22656	0.2	967	16.8	16.2	0.6	16.2	0.0	16.2	
0.23047	0.2	967	16.8	16.2	0.6	16.2	0.0	16.2	
0.23438	0.2	967	16.8	16.1	0.7	16.1	0.0	16.1	
0.23828	0.2	967	16.8	16.1	0.7	16.1	0.0	16.1	
0.24219	0.2	967	16.8	16.1	0.7	16.1	0.0	16.1	
0.24609	0.2	967	16.9	16.1	0.8	16.1	0.0	16.1	
0.25000	0.2	967	16.9	16.1	0.8	16.1	0.0	16.1	
0.25391	0.2	967	16.9	16.0	0.9	16.0	0.0	16.0	
0.25781	0.2	967	16.9	16.0	0.9	16.0	0.0	16.0	
0.26172	0.2	967	16.9	16.0	0.9	16.0	0.0	16.0	
0.26562	0.2	968	16.9	16.0	0.9	16.0	0.0	16.0	
0.26953	0.2	968	16.9	16.0	0.9	16.0	0.0	16.0	
0.27344	0.2	968	16.9	16.0	0.9	16.0	0.0	16.0	
0.27734	0.2	968	16.9	15.9	1.0	15.9	0.0	15.9	
0.28125	0.2	968	16.9	15.9	1.0	15.9	0.0	15.9	
0.28516	0.2	968	16.9	15.9	1.0	15.9	0.0	15.9	
0.28906	0.2	968	16.9	15.9	1.0	15.9	0.0	15.9	
0.29297	0.2	968	16.9	15.9	1.0	15.9	0.0	15.9	
0.29688	0.2	968	16.9	15.9	1.0	15.9	0.0	15.9	
0.30078	0.2	968	17.0	15.9	1.1	15.9	0.0	15.9	
0.30469	0.2	968	17.0	15.9	1.1	15.9	0.0	15.9	
0.30859	0.2	968	17.0	15.9	1.1	15.9	0.0	15.9	
0.31250	0.2	968	17.0	15.9	1.1	15.9	0.0	15.9	
0.31641	0.2	968	17.0	15.9	1.1	15.9	0.0	15.9	
0.32031	0.2	968	17.0	15.9	1.1	15.9	0.0	15.9	
0.32422	0.2	968	17.0	16.0	1.0	16.0	0.0	16.0	
0.32812	0.2	968	17.0	16.0	1.0	16.0	0.0	16.0	
0.33203	0.3	968	17.0	16.0	1.0	16.0	0.0	16.0	
0.33594	0.3	968	17.0	16.0	1.0	16.0	0.0	16.0	
0.33984	0.3	968	16.9	16.0	0.9	16.0	0.0	16.0	
0.34375	0.4	968	16.9	16.0	0.9	16.0	0.0	16.0	
0.34766	0.4	968	16.9	16.0	0.9	16.0	0.0	16.0	
0.35156	0.5	968	16.8	16.0	0.8	16.0	0.0	16.0	
0.35547	0.5	968	16.8	16.0	0.8	16.0	0.0	16.0	
0.35938	0.6	968	16.8	16.0	0.8	16.0	0.0	16.0	
0.36328	0.5	968	16.7	16.0	0.7	16.0	0.0	16.0	
0.36719	0.6	968	16.7	16.0	0.7	16.0	0.0	16.0	
0.37109	0.6	968	16.7	15.9	0.8	15.9	0.0	15.9	
0.37500	0.5	968	16.6	15.9	0.7	15.9	0.0	15.9	
0.37891	0.5	968	16.6	15.9	0.7	15.9	0.0	15.9	
0.38281	0.5	968	16.6	15.8	0.8	15.8	0.0	15.8	
0.38672	0.4	968	16.6	15.8	0.8	15.8	0.0	15.8	
0.39062	0.4	968	16.5	15.8	0.7	15.8	0.0	15.8	
0.39453	0.2	968	16.5	15.7	0.8	15.7	0.0	15.7	
0.39844	0.2	968	16.6	15.7	0.9	15.7	0.0	15.7	
0.40234	0.1	968	16.6	15.7	0.9	15.7	0.0	15.7	
0.40625	0.0	968	16.6	15.6	1.0	15.6	0.0	15.6	
0.41016	-0.0	968	16.6	15.6	1.0	15.6	0.0	15.6	
0.41406	-0.1	968	16.7	15.6	1.1	15.6	0.0	15.6	
0.41797	-0.1	968	16.7	15.6	1.1	15.6	0.0	15.6	
0.42188	-0.1	968	16.7	15.6	1.1	15.6	0.0	15.6	
0.42578	-0.2	968	16.8	15.5	1.3	15.5	0.0	15.5	
0.42969	-0.2	968	16.8	15.5	1.3	15.5	0.0	15.5	
0.43359	-0.1	968	16.9	15.5	1.4	15.5	0.0	15.5	
0.43750	-0.1	968	17.0	15.5	1.5	15.5	0.0	15.5	
0.44141	-0.1	968	17.0	15.5	1.5	15.5	0.0	15.5	
0.44531	-0.0	968	17.0	15.5	1.5	15.5	0.0	15.5	
0.44922	-0.0	968	17.0	15.5	1.5	15.5	0.0	15.5	
0.45312	0.1	968	17.1	15.5	1.6	15.5	0.0	15.5	
0.45703	0.1	968	17.1	15.5	1.6	15.5	0.0	15.5	
0.46094	0.1	968	17.1	15.5	1.6	15.5	0.0	15.5	
0.46484	0.2	968	17.1	15.5	1.6	15.5	0.0	15.5	
0.46875	0.2	968	17.1	15.5	1.6	15.5	0.0	15.5	
0.47266	0.2	968	17.1	15.5	1.6	15.5	0.0	15.5	
0.47656	0.2	968	17.1	15.5	1.6	15.5	0.0	15.5	
0.48047	0.2	968	17.2	15.5	1.7	15.5	0.0	15.5	
0.48438	0.3	968	17.2	15.5	1.7	15.5	0.0	15.5	
0.48828	0.3	968	17.1	15.5	1.6	15.5	0.0	15.5	
0.49219	0.3	968	17.2	15.5	1.7	15.5	0.0	15.5	
0.49609	0.3	968	17.2	15.5	1.7	15.5	0.0	15.5	
0.50000	0.3	968	17.2	15.5	1.7	15.5	0.0	15.5	
0.50391	0.2	968	17.2	15.5	1.7	15.5	0.0	15.5	
0.50781	0.2	968	17.2	15.5	1.7	15.5	0.0	15.5	
0.51172	0.2	968	17.2	15.5	1.7	15.5	0.0	15.5	
0.51562	0.2	968	17.2	15.5	1.7	15.5	0.0	15.5	
0.51953	0.2	968	17.2	15.5	1.7	15.5	0.0	15.5	
0.52344	0.2	968	17.2	15.5	1.7	15.5	0.0	15.5	
0.52734	0.2	968	17.2	15.5	1.7	15.5	0.0	15.5	
0.53125	0.2	968	17.2	15.5	1.7	15.5	0.0	15.5	
0.53516	0.2	968	17.2	15.5	1.7	15.5	0.0	15.5	
0.53906	0.2	968	17.2	15.5	1.7	15.5	0.0	15.5	
0.54297	0.2	968	17.2	15.5	1.7	15.5	0.0	15.5	
0.54688	0.2	969	17.2	15.5	1.7	15.5	0.0	15.5	
0.55078	0.2	969	17.3	15.6	1.7	15.6	0.0	15.6	
0.55469	0.1	969	17.3	15.6	1.7	15.6	0.0	15.6	
0.55859	0.2	969	17.3	15.6	1.7	15.6	0.0	15.6	
0.56250	0.2	969	17.3	15.6	1.7	15.6	0.0	15.6	
0.56641	0.2	969	17.3	15.7	1.6	15.7	0.0	15.7	
0.57031	0.2	969	17.3	15.7	1.6	15.7	0.0	15.7	
0.57422	0.3	969	17.3	15.7	1.6	15.7	0.0	15.7	
0.57812	0.3	969	17.3	15.7	1.6	15.7	0.0	15.7	
0.58203	0.3	969	17.3	15.7	1.6	15.7	0.0	15.7	
0.58594	0.4	969	17.2	15.8	1.4	15.8	0.0	15.8	
0.58984	0.4	969	17.2	15.8	1.4	15.8	0.0	15.8	
0.59375	0.4	969	17.2	15.8	1.4	15.8	0.0	15.8	
0.59766	0.4	969	17.2	15.8	1.4	15.8	0.0	15.8	
0.60156	0.4	969	17.1	15.8	1.3	15.8	0.0	15.8	
0.60547	0.4	969	17.1	15.8	1.3	15.8	0.0	15.8	
0.60938	0.4	969	17.1	15.8	1.3	15.8	0.0	15.8	
0.61328	0.4	969	17.1	15.8	1.3	15.8	0.0	15.8	
0.61719	0.4	969	17.1	15.8	1.3	15.8	0.0	15.8	
0.62109	0.3	969	17.0	15.8	1.2	15.8	0.0	15.8	
0.62500	0.3	969	17.0	15.8	1.2	15.8	0.0	15.8	
0.62891	0.3	969	17.0	15.8	1.2	15.8	0.0	15.8	
0.63281	0.3	969	17.0	15.8	1.2	15.8	0.0	15.8	
0.63672	0.3	969	17.0	15.8	1.2	15.8	0.0	15.8	
0.64062	0.2	969	17.0	15.8	1.2	15.8	0.0	15.8	
0.64453	0.2	969	17.0	15.8	1.2	15.8	0.0	15.8	
0.64844	0.2	969	17.0	15.8	1.2	15.8	0.0	15.8	
0.65234	0.2	969	17.0	15.8	1.2	15.8	0.0	15.8	
0.65625	0.2	969	17.0	15.8	1.2	15.8	0.0	15.8	
0.66016	0.2	969	17.0	15.8	1.2	15.8	0.0	15.8	
0.66406	0.2	969	17.0	15.8	1.2	15.8	0.0	15.8	
0.66797	0.2	969	17.0	15.8	1.2	15.8	0.0	15.8	
0.67188	0.2	969	17.0	15.8	1.2	15.8	0.0	15.8	
0.67578	0.2	969	17.0	15.8	1.2	15.8	0.0	15.8	
0.67969	0.2	969	17.0	15.8	1.2	15.8	0.0	15.8	
0.68359	0.2	969	17.0	15.8	1.2	15.8	0.0	15.8	
0.68750	0.2	969	17.0	15.8	1.2	15.8	0.0	15.8	
0.69141	0.2	969	17.0	15.9	1.1	15.9	0.0	15.9	
0.69531	0.2	969	17.0	15.9	1.1	15.9	0.0	15.9	
0.69922	0.2	969	17.1	15.9	1.2	15.9	0.0	15.9	
0.70312	0.2	969	17.1	15.9	1.2	15.9	0.0	15.9	
0.70703	0.2	969	17.1	15.9	1.2	15.9	0.0	15.9	
0.71094	0.2	969	17.1	15.9	1.2	15.9	0.0	15.9	
0.71484	0.2	969	17.1	15.9	1.2	15.9	0.0	15.9	
0.71875	0.2	969	17.1	15.9	1.2	15.9	0.0	15.9	
0.72266	0.2	969	17.1	15.9	1.2	15.9	0.0	15.9	
0.72656	0.2	969	17.1	16.0	1.1	16.0	0.0	16.0	
0.73047	0.3	969	17.1	16.0	1.1	16.0	0.0	16.0	
0.73438	0.2	969	17.1	16.0	1.1	16.0	0.0	16.0	
0.73828	0.2	969	17.1	16.0	1.1	16.0	0.0	16.0	
0.74219	0.2	969	17.1	16.0	1.1	16.0	0.0	16.0	
0.74609	0.2	969	17.1	16.0	1.1	16.0	0.0	16.0	
0.75000	0.2	969	17.1	16.0	1.1	16.0	0.0	16.0	
0.75391	0.2	969	17.1	16.1	1.0	16.1	0.0	16.1	
0.75781	0.2	969	17.1	16.1	1.0	16.1	0.0	16.1	
0.76172	0.2	969	17.1	16.1	1.0	16.1	0.0	16.1	
0.76562	0.2	969	17.1	16.1	1.0	16.1	0.0	16.1	
0.76953	0.2	969	17.1	16.1	1.0	16.1	0.0	16.1	
0.77344	0.3	969	17.1	16.1	1.0	16.1	0.0	16.1	
0.77734	0.3	969	17.1	16.2	0.9	16.2	0.0	16.2	
0.78125	0.2	969	17.1	16.2	0.9	16.2	0.0	16.2	
0.78516	0.2	969	17.1	16.2	0.9	16.2	0.0	16.2	
0.78906	0.2	969	17.1	16.2	0.9	16.2	0.0	16.2	
0.79297	0.2	970	17.1	16.2	0.9	16.2	0.0	16.2	
0.79688	0.2	970	17.1	16.2	0.9	16.2	0.0	16.2	
0.80078	0.2	970	17.2	16.3	0.9	16.3	0.0	16.3	
0.80469	0.2	970	17.1	16.3	0.8	16.3	0.0	16.3	
0.80859	0.2	970	17.1	16.3	0.8	16.3	0.0	16.3	
0.81250	0.2	970	17.2	16.3	0.9	16.3	0.0	16.3	
0.81641	0.2	970	17.2	16.3	0.9	16.3	0.0	16.3	
0.82031	0.2	970	17.2	16.3	0.9	16.3	0.0	16.3	
0.82422	0.2	970	17.2	16.3	0.9	16.3	0.0	16.3	
0.82812	0.2	970	17.2	16.3	0.9	16.3	0.0	16.3	
0.83203	0.2	970	17.2	16.3	0.9	16.3	0.0	16.3	
0.83594	0.2	970	17.2	16.3	0.9	16.3	0.0	16.3	
0.83984	0.2	970	17.2	16.3	0.9	16.3	0.0	16.3	
0.84375	0.2	970	17.2	16.3	0.9	16.3	0.0	16.3	
0.84766	0.2	970	17.2	16.3	0.9	16.3	0.0	16.3	
0.85156	0.2	970	17.2	16.3	0.9	16.3	0.0	16.3	
0.85547	0.2	970	17.3	16.3	1.0	16.3	0.0	16.3	
0.85938	0.2	970	17.3	16.3	1.0	16.3	0.0	16.3	
0.86328	0.2	970	17.3	16.2	1.1	16.2	0.0	16.2	
0.86719	0.2	970	17.3	16.2	1.1	16.2	0.0	16.2	
0.87109	0.2	970	17.3	16.2	1.1	16.2	0.0	16.2	
0.87500	0.2	970	17.3	16.2	1.1	16.2	0.0	16.2	
0.87891	0.2	970	17.3	16.2	1.1	16.2	0.0	16.2	
0.88281	0.2	970	17.3	16.2	1.1	16.2	0.0	16.2	
0.88672	0.2	970	17.3	16.2	1.1	16.2	0.0	16.2	
0.89062	0.2	970	17.3	16.1	1.2	16.1	0.0	16.1	
0.89453	0.2	970	17.3	16.1	1.2	16.1	0.0	16.1	
0.89844	0.2	970	17.3	16.1	1.2	16.1	0.0	16.1	
0.90234	0.2	970	17.4	16.1	1.3	16.1	0.0	16.1	
0.90625	0.2	970	17.4	16.1	1.3	16.1	0.0	16.1	
0.91016	0.2	970	17.4	16.1	1.3	16.1	0.0	16.1	
0.91406	0.2	970	17.4	16.1	1.3	16.1	0.0	16.1	
0.91797	0.2	970	17.4	16.1	1.3	16.1	0.0	16.1	
0.92188	0.2	970	17.4	16.1	1.3	16.1	0.0	16.1	
0.92578	0.2	970	17.4	16.1	1.3	16.1	0.0	16.1	
0.92969	0.2	970	17.4	16.1	1.3	16.1	0.0	16.1	
0.93359	0.2	970	17.4	16.1	1.3	16.1	0.0	16.1	
0.93750	0.2	970	17.4	16.1	1.3	16.1	0.0	16.1	
0.94141	0.3	970	17.4	16.1	1.3	16.1	0.0	16.1	
0.94531	0.2	970	17.4	16.1	1.3	16.1	0.0	16.1	
0.94922	0.2	970	17.4	16.1	1.3	16.1	0.0	16.1	
0.95312	0.3	970	17.4	16.2	1.2	16.2	0.0	16.2	
0.95703	0.3	970	17.4	16.2	1.2	16.2	0.0	16.2	
0.96094	0.3	970	17.4	16.2	1.2	16.2	0.0	16.2	
0.96484	0.4	970	17.3	16.2	1.1	16.2	0.0	16.2	
0.96875	0.4	970	17.3	16.2	1.1	16.2	0.0	16.2	
0.97266	0.5	970	17.3	16.2	1.1	16.2	0.0	16.2	
0.97656	0.5	970	17.3	16.2	1.1	16.2	0.0	16.2	
0.98047	0.6	970	17.2	16.2	1.0	16.2	0.0	16.2	
0.98438	0.6	970	17.2	16.2	1.0	16.2	0.0	16.2	
0.98828	0.6	970	17.1	16.2	0.9	16.2	0.0	16.2	
0.99219	0.6	970	17.1	16.1	1.0	16.1	0.0	16.1	
0.99609	0.6	970	17.0	16.1	0.9	16.1	0.0	16.1	
1.00000	0.6	970	17.0	16.1	0.9	16.1	0.0	16.1	
1.00391	0.6	970	17.0	16.1	0.9	16.1	0.0	16.1	
1.00781	0.5	971	17.0	16.0	1.0	16.0	0.0	16.0	
1.01172	0.4	971	16.9	16.0	0.9	16.0	0.0	16.0	
1.01562	0.3	971	16.9	16.0	0.9	16.0	0.0	16.0	
1.01953	0.2	971	16.9	15.9	1.0	15.9	0.0	15.9	
1.02344	0.2	971	16.9	15.9	1.0	15.9	0.0	15.9	
1.02734	0.1	971	17.0	15.9	1.1	15.9	0.0	15.9	
1.03125	0.0	971	17.0	15.9	1.1	15.9	0.0	15.9	
1.03516	-0.0	971	17.0	15.8	1.2	15.8	0.0	15.8	
1.03906	-0.1	971	17.1	15.8	1.3	15.8	0.0	15.8	
1.04297	-0.1	971	17.1	15.8	1.3	15.8	0.0	15.8	
1.04688	-0.2	971	17.2	15.8	1.4	15.8	0.0	15.8	
1.05078	-0.1	971	17.2	15.8	1.4	15.8	0.0	15.8	
1.05469	-0.2	971	17.3	15.7	1.6	15.7	0.0	15.7	
1.05859	-0.1	971	17.3	15.7	1.6	15.7	0.0	15.7	
1.06250	-0.1	971	17.4	15.7	1.7	15.7	0.0	15.7	
1.06641	-0.1	971	17.4	15.7	1.7	15.7	0.0	15.7	
1.07031	-0.0	971	17.4	15.7	1.7	15.7	0.0	15.7	
1.07422	0.0	971	17.5	15.7	1.8	15.7	0.0	15.7	
1.07812	0.0	971	17.5	15.7	1.8	15.7	0.0	15.7	
1.08203	0.1	971	17.5	15.7	1.8	15.7	0.0	15.7	
1.08594	0.1	971	17.5	15.7	1.8	15.7	0.0	15.7	
1.08984	0.1	971	17.6	15.7	1.9	15.7	0.0	15.7	
1.09375	0.2	971	17.6	15.7	1.9	15.7	0.0	15.7	
1.09766	0.2	971	17.6	15.7	1.9	15.7	0.0	15.7	
1.10156	0.2	971	17.6	15.7	1.9	15.7	0.0	15.7	
1.10547	0.2	971	17.6	15.7	1.9	15.7	0.0	15.7	
1.10938	0.3	971	17.6	15.7	1.9	15.7	0.0	15.7	
1.11328	0.2	971	17.6	15.7	1.9	15.7	0.0	15.7	
1.11719	0.2	971	17.6	15.7	1.9	15.7	0.0	15.7	
1.12109	0.2	971	17.6	15.7	1.9	15.7	0.0	15.7	
1.12500	0.2	971	17.6	15.7	1.9	15.7	0.0	15.7	
1.12891	0.2	971	17.6	15.7	1.9	15.7	0.0	15.7	
1.13281	0.3	971	17.6	15.7	1.9	15.7	0.0	15.7	
1.13672	0.2	971	17.6	15.7	1.9	15.7	0.0	15.7	
1.14062	0.1	971	17.6	15.7	1.9	15.7	0.0	15.7	
1.14453	0.2	971	17.6	15.7	1.9	15.7	0.0	15.7	
1.14844	0.2	971	17.6	15.7	1.9	15.7	0.0	15.7	
1.15234	0.2	971	17.6	15.7	1.9	15.7	0.0	15.7	
1.15625	0.2	971	17.7	15.8	1.9	15.8	0.0	15.8	
1.16016	0.2	971	17.7	15.8	1.9	15.8	0.0	15.8	
1.16406	0.2	971	17.7	15.8	1.9	15.8	0.0	15.8	
1.16797	0.2	971	17.7	15.8	1.9	15.8	0.0	15.8	
1.17188	0.2	971	17.7	15.8	1.9	15.8	0.0	15.8	
1.17578	0.2	971	17.7	15.8	1.9	15.8	0.0	15.8	
1.17969	0.2	971	17.7	15.9	1.8	15.9	0.0	15.9	
1.18359	0.2	971	17.7	15.9	1.8	15.9	0.0	15.9	
1.18750	0.2	971	17.7	15.9	1.8	15.9	0.0	15.9	
1.19141	0.3	971	17.7	15.9	1.8	15.9	0.0	15.9	
1.19531	0.3	971	17.7	15.9	1.8	15.9	0.0	15.9	
1.19922	0.3	971	17.7	16.0	1.7	16.0	0.0	16.0	
1.20312	0.3	971	17.7	16.0	1.7	16.0	0.0	16.0	
1.20703	0.3	971	17.7	16.0	1.7	16.0	0.0	16.0	
1.21094	0.4	971	17.7	16.0	1.7	16.0	0.0	16.0	
1.21484	0.4	971	17.7	16.0	1.7	16.0	0.0	16.0	
1.21875	0.4	971	17.6	16.1	1.5	16.1	0.0	16.1	
1.22266	0.4	971	17.6	16.1	1.5	16.1	0.0	16.1	
1.22656	0.4	971	17.6	16.1	1.5	16.1	0.0	16.1	
1.23047	0.4	971	17.6	16.1	1.5	16.1	0.0	16.1	
1.23438	0.4	971	17.6	16.1	1.5	16.1	0.0	16.1	
1.23828	0.4	971	17.5	16.1	1.4	16.1	0.0	16.1	
1.24219	0.4	971	17.5	16.1	1.4	16.1	0.0	16.1	
1.24609	0.3	971	17.5	16.1	1.4	16.1	0.0	16.1	
1.25000	0.3	971	17.5	16.1	1.4	16.1	0.0	16.1	
1.25391	0.3	971	17.5	16.1	1.4	16.1	0.0	16.1	
1.25781	0.3	971	17.5	16.1	1.4	16.1	0.0	16.1	
1.26172	0.3	971	17.5	16.1	1.4	16.1	0.0	16.1	
1.26562	0.2	971	17.5	16.1	1.4	16.1	0.0	16.1	
1.26953	0.2	971	17.5	16.1	1.4	16.1	0.0	16.1	
1.27344	0.2	971	17.5	16.1	1.4	16.1	0.0	16.1	
1.27734	0.2	971	17.5	16.1	1.4	16.1	0.0	16.1	
1.28125	0.2	971	17.5	16.1	1.4	16.1	0.0	16.1	
1.28516	0.1	971	17.5	16.1	1.4	16.1	0.0	16.1	
1.28906	0.2	971	17.5	16.1	1.4	16.1	0.0	16.1	
1.29297	0.2	971	17.5	16.1	1.4	16.1	0.0	16.1	
1.29688	0.2	971	17.6	16.1	1.5	16.1	0.0	16.1	
1.30078	0.1	971	17.6	16.2	1.4	16.2	0.0	16.2	
1.30469	0.2	971	17.6	16.1	1.5	16.1	0.0	16.1	
1.30859	0.2	971	17.6	16.2	1.4	16.2	0.0	16.2	
1.31250	0.2	971	17.6	16.2	1.4	16.2	0.0	16.2	
1.31641	0.2	971	17.6	16.2	1.4	16.2	0.0	16.2	
1.32031	0.2	971	17.6	16.2	1.4	16.2	0.0	16.2	
1.32422	0.2	972	17.7	16.2	1.5	16.2	0.0	16.2	
1.32812	0.2	972	17.7	16.2	1.5	16.2	0.0	16.2	
1.33203	0.2	972	17.7	16.2	1.5	16.2	0.0	16.2	
1.33594	0.2	972	17.7	16.3	1.4	16.3	0.0	16.3	
1.33984	0.2	972	17.7	16.3	1.4	16.3	0.0	16.3	
1.34375	0.2	972	17.7	16.3	1.4	16.3	0.0	16.3	
1.34766	0.2	972	17.7	16.3	1.4	16.3	0.0	16.3	
1.35156	0.2	972	17.7	16.3	1.4	16.3	0.0	16.3	
1.35547	0.2	972	17.8	16.4	1.4	16.4	0.0	16.4	
1.35938	0.2	972	17.8	16.4	1.4	16.4	0.0	16.4	
1.36328	0.1	972	17.8	16.4	1.4	16.4	0.0	16.4	
1.36719	0.1	972	17.8	16.4	1.4	16.4	0.0	16.4	
1.37109	0.2	972	17.8	16.4	1.4	16.4	0.0	16.4	
1.37500	0.2	972	17.8	16.5	1.3	16.5	0.0	16.5	
1.37891	0.1	972	17.8	16.5	1.3	16.5	0.0	16.5	
1.38281	0.1	972	17.9	16.5	1.4	16.5	0.0	16.5	
1.38672	0.1	972	17.9	16.5	1.4	16.5	0.0	16.5	
1.39062	0.1	972	17.9	16.6	1.3	16.6	0.0	16.6	
1.39453	0.1	972	17.9	16.6	1.3	16.6	0.0	16.6	
1.39844	0.1	972	17.9	16.6	1.3	16.6	0.0	16.6	
1.40234	0.1	972	18.0	16.6	1.4	16.6	0.0	16.6	
1.40625	0.1	972	18.0	16.7	1.3	16.7	0.0	16.7	
1.41016	0.1	972	18.0	16.7	1.3	16.7	0.0	16.7	
1.41406	0.1	972	18.0	16.7	1.3	16.7	0.0	16.7	
1.41797	0.1	972	18.1	16.8	1.3	16.8	0.0	16.8	
1.42188	0.1	972	18.1	16.8	1.3	16.8	0.0	16.8	
1.42578	0.0	972	18.1	16.8	1.3	16.8	0.0	16.8	
1.42969	0.0	972	18.2	16.8	1.4	16.8	0.0	16.8	
1.43359	0.0	972	18.2	16.9	1.3	16.9	0.0	16.9	
1.43750	-0.0	972	18.2	16.9	1.3	16.9	0.0	16.9	
1.44141	-0.0	972	18.3	16.9	1.4	16.9	0.0	16.9	
1.44531	-0.0	972	18.3	16.9	1.4	16.9	0.0	16.9	
1.44922	-0.0	972	18.3	17.0	1.3	17.0	0.0	17.0	
1.45312	-0.1	972	18.4	17.0	1.4	17.0	0.0	17.0	
1.45703	-0.1	972	18.4	17.0	1.4	17.0	0.0	17.0	
1.46094	-0.1	972	18.5	17.0	1.5	17.0	0.0	17.0	
1.46484	-0.2	972	18.5	17.0	1.5	17.0	0.0	17.0	
1.46875	-0.2	972	18.6	17.0	1.6	17.0	0.0	17.0	
1.47266	-0.2	972	18.6	17.0	1.6	17.0	0.0	17.0	
1.47656	-0.2	972	18.7	17.1	1.6	17.1	0.0	17.1	
1.48047	-0.2	972	18.7	17.0	1.7	17.0	0.0	17.0	
1.48438	-0.2	972	18.7	17.1	1.6	17.1	0.0	17.1	
1.48828	-0.2	972	18.8	17.1	1.7	17.1	0.0	17.1	
1.49219	-0.2	972	18.9	17.1	1.8	17.1	0.0	17.1	
1.49609	-0.3	972	18.9	17.1	1.8	17.1	0.0	17.1	
1.50000	-0.3	972	19.0	17.1	1.9	17.1	0.0	17.1	
1.50391	-0.3	972	19.0	17.1	1.9	17.1	0.0	17.1	
1.50781	-0.3	972	19.1	17.1	2.0	17.1	0.0	17.1	
1.51172	-0.3	972	19.1	17.1	2.0	17.1	0.0	17.1	
1.51562	-0.3	971	19.2	17.1	2.1	17.1	0.0	17.1	
1.51953	-0.4	971	19.3	17.1	2.2	17.1	0.0	17.1	
1.52344	-0.4	971	19.3	17.2	2.1	17.2	0.0	17.2	
1.52734	-0.4	971	19.4	17.2	2.2	17.2	0.0	17.2	
1.53125	-0.4	971	19.4	17.2	2.2	17.2	0.0	17.2	
1.53516	-0.4	971	19.5	17.2	2.3	17.2	0.0	17.2	
1.53906	-0.4	971	19.5	17.2	2.3	17.2	0.0	17.2	
1.54297	-0.4	971	19.6	17.3	2.3	17.3	0.0	17.3	
1.54688	-0.4	971	19.7	17.3	2.4	17.3	0.0	17.3	
1.55078	-0.4	971	19.7	17.4	2.3	17.4	0.0	17.4	
1.55469	-0.4	971	19.8	17.4	2.4	17.4	0.0	17.4	
1.55859	-0.4	971	19.8	17.4	2.4	17.4	0.0	17.4	
1.56250	-0.4	971	19.9	17.5	2.4	17.5	0.0	17.5	
1.56641	-0.4	971	19.9	17.6	2.3	17.6	0.0	17.6	
1.57031	-0.4	971	20.0	17.6	2.4	17.6	0.0	17.6	
1.57422	-0.4	971	20.0	17.7	2.3	17.7	0.0	17.7	
1.57812	-0.4	971	20.1	17.7	2.4	17.7	0.0	17.7	
1.58203	-0.3	971	20.1	17.8	2.3	17.8	0.0	17.8	
1.58594	-0.3	971	20.2	17.8	2.4	17.8	0.0	17.8	
1.58984	-0.3	971	20.2	17.9	2.3	17.9	0.0	17.9	
1.59375	-0.2	971	20.3	18.0	2.3	18.0	0.0	18.0	
1.59766	-0.2	971	20.3	18.0	2.3	18.0	0.0	18.0	
1.60156	-0.2	971	20.3	18.1	2.2	18.1	0.0	18.1	
1.60547	-0.1	971	20.4	18.1	2.3	18.1	0.0	18.1	
1.60938	-0.1	971	20.4	18.2	2.2	18.2	0.0	18.2	
1.61328	-0.1	971	20.4	18.2	2.2	18.2	0.0	18.2	
1.61719	-0.1	971	20.5	18.2	2.3	18.2	0.0	18.2	
1.62109	-0.1	971	20.5	18.3	2.2	18.3	0.0	18.3	
1.62500	-0.1	971	20.6	18.3	2.3	18.3	0.0	18.3	
1.62891	-0.2	971	20.6	18.3	2.3	18.3	0.0	18.3	
1.63281	-0.3	971	20.7	18.4	2.3	18.4	0.0	18.4	
1.63672	-0.4	971	20.7	18.4	2.3	18.4	0.0	18.4	
1.64062	-0.5	971	20.8	18.4	2.4	18.4	0.0	18.4	
1.64453	-0.6	971	20.9	18.4	2.5	18.4	0.0	18.4	
1.64844	-0.8	971	21.0	18.5	2.5	18.5	0.0	18.5	
1.65234	-1.0	971	21.0	18.5	2.5	18.5	0.0	18.5	
1.65625	-1.2	971	21.1	18.5	2.6	18.5	0.0	18.5	
1.66016	-1.3	971	21.2	18.6	2.6	18.6	0.0	18.6	
1.66406	-1.5	970	21.3	18.6	2.7	18.6	0.0	18.6	
1.66797	-1.6	970	21.4	18.7	2.7	18.7	0.0	18.7	
1.67188	-1.7	970	21.6	18.7	2.9	18.7	0.0	18.7	
