FluxView - FluxMed acquisition system
Signal file
Serial Number	:
W version:	1.20h-OX-CO2	File version:	1.13
Sampling rate:	256 Hz
Time	Flow	Volume	Paw	Pes	Ptpulm	Pga	Ptdiaf	CO2	
0.00391	-4.2	6217	23.9	22.8	1.1	22.8	0.0	22.8	
0.00781	-5.1	6216	24.0	23.0	1.0	23.0	0.0	23.0	
0.01172	-5.7	6216	24.2	23.1	1.1	23.1	0.0	23.1	
0.01562	-6.1	6216	24.3	23.2	1.1	23.2	0.0	23.2	
0.01953	-6.2	6215	24.5	23.3	1.2	23.3	0.0	23.3	
0.02344	-6.1	6215	24.6	23.4	1.2	23.4	0.0	23.4	
0.02734	-5.8	6214	24.8	23.5	1.3	23.5	0.0	23.5	
0.03125	-5.3	6214	25.0	23.6	1.4	23.6	0.0	23.6	
0.03516	-4.6	6214	25.1	23.7	1.4	23.7	0.0	23.7	
0.03906	-3.9	6214	25.3	23.9	1.4	23.9	0.0	23.9	
0.04297	-3.2	6213	25.4	24.0	1.4	24.0	0.0	24.0	
0.04688	-2.5	6213	25.4	24.1	1.3	24.1	0.0	24.1	
0.05078	-1.8	6213	25.5	24.2	1.3	24.2	0.0	24.2	
0.05469	-1.2	6213	25.5	24.3	1.2	24.3	0.0	24.3	
0.05859	-0.7	6213	25.5	24.4	1.1	24.4	0.0	24.4	
0.06250	-0.4	6213	25.5	24.6	0.9	24.6	0.0	24.6	
0.06641	-0.1	6213	25.5	24.7	0.8	24.7	0.0	24.7	
0.07031	0.2	6213	25.5	24.8	0.7	24.8	0.0	24.8	
0.07422	0.3	6213	25.4	24.9	0.5	24.9	0.0	24.9	
0.07812	0.3	6213	25.4	24.9	0.5	24.9	0.0	24.9	
0.08203	0.2	6213	25.4	25.0	0.4	25.0	0.0	25.0	
0.08594	0.1	6213	25.3	25.1	0.2	25.1	0.0	25.1	
0.08984	-0.0	6213	25.3	25.2	0.1	25.2	0.0	25.2	
0.09375	-0.2	6213	25.3	25.3	0.0	25.3	0.0	25.3	
0.09766	-0.4	6213	25.3	25.4	-0.1	25.4	0.0	25.4	
0.10156	-0.5	6213	25.3	25.4	-0.1	25.4	0.0	25.4	
0.10547	-0.7	6213	25.3	25.5	-0.2	25.5	0.0	25.5	
0.10938	-0.8	6213	25.3	25.6	-0.3	25.6	0.0	25.6	
0.11328	-1.0	6213	25.3	25.7	-0.4	25.7	0.0	25.7	
0.11719	-1.1	6213	25.4	25.7	-0.3	25.7	0.0	25.7	
0.12109	-1.2	6213	25.4	25.8	-0.4	25.8	0.0	25.8	
0.12500	-1.2	6213	25.5	25.9	-0.4	25.9	0.0	25.9	
0.12891	-1.2	6212	25.5	26.0	-0.5	26.0	0.0	26.0	
0.13281	-1.2	6212	25.6	26.0	-0.4	26.0	0.0	26.0	
0.13672	-1.1	6212	25.6	26.1	-0.5	26.1	0.0	26.1	
0.14062	-1.0	6212	25.6	26.2	-0.6	26.2	0.0	26.2	
0.14453	-1.0	6212	25.7	26.3	-0.6	26.3	0.0	26.3	
0.14844	-0.9	6212	25.7	26.3	-0.6	26.3	0.0	26.3	
0.15234	-0.8	6212	25.7	26.4	-0.7	26.4	0.0	26.4	
0.15625	-0.7	6212	25.7	26.5	-0.8	26.5	0.0	26.5	
0.16016	-0.6	6212	25.7	26.6	-0.9	26.6	0.0	26.6	
0.16406	-0.5	6212	25.7	26.6	-0.9	26.6	0.0	26.6	
0.16797	-0.5	6212	25.7	26.7	-1.0	26.7	0.0	26.7	
0.17188	-0.5	6212	25.7	26.8	-1.1	26.8	0.0	26.8	
0.17578	-0.5	6212	25.7	26.8	-1.1	26.8	0.0	26.8	
0.17969	-0.5	6212	25.7	26.9	-1.2	26.9	0.0	26.9	
0.18359	-0.5	6212	25.7	27.0	-1.3	27.0	0.0	27.0	
0.18750	-0.4	6212	25.7	27.0	-1.3	27.0	0.0	27.0	
0.19141	-0.4	6212	25.7	27.1	-1.4	27.1	0.0	27.1	
0.19531	-0.4	6212	25.7	27.1	-1.4	27.1	0.0	27.1	
0.19922	-0.5	6212	25.6	27.2	-1.6	27.2	0.0	27.2	
0.20312	-0.5	6212	25.6	27.2	-1.6	27.2	0.0	27.2	
0.20703	-0.5	6212	25.6	27.3	-1.7	27.3	0.0	27.3	
0.21094	-0.5	6212	25.6	27.3	-1.7	27.3	0.0	27.3	
0.21484	-0.5	6212	25.6	27.4	-1.8	27.4	0.0	27.4	
0.21875	-0.5	6212	25.6	27.4	-1.8	27.4	0.0	27.4	
0.22266	-0.6	6212	25.6	27.5	-1.9	27.5	0.0	27.5	
0.22656	-0.6	6211	25.6	27.5	-1.9	27.5	0.0	27.5	
0.23047	-0.5	6211	25.6	27.5	-1.9	27.5	0.0	27.5	
0.23438	-0.5	6211	25.6	27.6	-2.0	27.6	0.0	27.6	
0.23828	-0.5	6211	25.5	27.6	-2.1	27.6	0.0	27.6	
0.24219	-0.5	6211	25.5	27.7	-2.2	27.7	0.0	27.7	
0.24609	-0.5	6211	25.5	27.7	-2.2	27.7	0.0	27.7	
0.25000	-0.5	6211	25.5	27.8	-2.3	27.8	0.0	27.8	
0.25391	-0.5	6211	25.5	27.8	-2.3	27.8	0.0	27.8	
0.25781	-0.5	6211	25.5	27.8	-2.3	27.8	0.0	27.8	
0.26172	-0.5	6211	25.5	27.9	-2.4	27.9	0.0	27.9	
0.26562	-0.4	6211	25.4	27.9	-2.5	27.9	0.0	27.9	
0.26953	-0.4	6211	25.4	27.9	-2.5	27.9	0.0	27.9	
0.27344	-0.5	6211	25.4	28.0	-2.6	28.0	0.0	28.0	
0.27734	-0.4	6211	25.4	28.0	-2.6	28.0	0.0	28.0	
0.28125	-0.5	6211	25.3	28.0	-2.7	28.0	0.0	28.0	
0.28516	-0.5	6211	25.3	28.0	-2.7	28.0	0.0	28.0	
0.28906	-0.5	6211	25.3	28.1	-2.8	28.1	0.0	28.1	
0.29297	-0.5	6211	25.3	28.1	-2.8	28.1	0.0	28.1	
0.29688	-0.6	6211	25.3	28.1	-2.8	28.1	0.0	28.1	
0.30078	-0.6	6211	25.3	28.1	-2.8	28.1	0.0	28.1	
0.30469	-0.6	6211	25.3	28.2	-2.9	28.2	0.0	28.2	
0.30859	-0.6	6211	25.3	28.2	-2.9	28.2	0.0	28.2	
0.31250	-0.6	6211	25.3	28.2	-2.9	28.2	0.0	28.2	
0.31641	-0.6	6211	25.3	28.2	-2.9	28.2	0.0	28.2	
0.32031	-0.7	6211	25.4	28.3	-2.9	28.3	0.0	28.3	
0.32422	-0.7	6211	25.4	28.3	-2.9	28.3	0.0	28.3	
0.32812	-0.7	6211	25.4	28.3	-2.9	28.3	0.0	28.3	
0.33203	-0.6	6211	25.4	28.3	-2.9	28.3	0.0	28.3	
0.33594	-0.6	6210	25.4	28.3	-2.9	28.3	0.0	28.3	
0.33984	-0.6	6210	25.4	28.4	-3.0	28.4	0.0	28.4	
0.34375	-0.5	6210	25.4	28.4	-3.0	28.4	0.0	28.4	
0.34766	-0.5	6210	25.4	28.4	-3.0	28.4	0.0	28.4	
0.35156	-0.5	6210	25.4	28.5	-3.1	28.5	0.0	28.5	
0.35547	-0.5	6210	25.4	28.5	-3.1	28.5	0.0	28.5	
0.35938	-0.5	6210	25.4	28.5	-3.1	28.5	0.0	28.5	
0.36328	-0.5	6210	25.4	28.5	-3.1	28.5	0.0	28.5	
0.36719	-0.5	6210	25.4	28.6	-3.2	28.6	0.0	28.6	
0.37109	-0.5	6210	25.4	28.6	-3.2	28.6	0.0	28.6	
0.37500	-0.5	6210	25.4	28.6	-3.2	28.6	0.0	28.6	
0.37891	-0.6	6210	25.3	28.6	-3.3	28.6	0.0	28.6	
0.38281	-0.6	6210	25.3	28.7	-3.4	28.7	0.0	28.7	
0.38672	-0.5	6210	25.3	28.7	-3.4	28.7	0.0	28.7	
0.39062	-0.5	6210	25.3	28.7	-3.4	28.7	0.0	28.7	
0.39453	-0.5	6210	25.3	28.7	-3.4	28.7	0.0	28.7	
0.39844	-0.6	6210	25.3	28.7	-3.4	28.7	0.0	28.7	
0.40234	-0.6	6210	25.3	28.7	-3.4	28.7	0.0	28.7	
0.40625	-0.6	6210	25.3	28.8	-3.5	28.8	0.0	28.8	
0.41016	-0.6	6210	25.3	28.8	-3.5	28.8	0.0	28.8	
0.41406	-0.6	6210	25.3	28.8	-3.5	28.8	0.0	28.8	
0.41797	-0.6	6210	25.3	28.8	-3.5	28.8	0.0	28.8	
0.42188	-0.6	6210	25.3	28.8	-3.5	28.8	0.0	28.8	
0.42578	-0.6	6210	25.4	28.9	-3.5	28.9	0.0	28.9	
0.42969	-0.6	6210	25.4	28.9	-3.5	28.9	0.0	28.9	
0.43359	-0.6	6210	25.4	28.9	-3.5	28.9	0.0	28.9	
0.43750	-0.6	6210	25.4	28.9	-3.5	28.9	0.0	28.9	
0.44141	-0.6	6210	25.4	28.9	-3.5	28.9	0.0	28.9	
0.44531	-0.6	6209	25.4	28.9	-3.5	28.9	0.0	28.9	
0.44922	-0.6	6209	25.4	28.9	-3.5	28.9	0.0	28.9	
0.45312	-0.6	6209	25.4	29.0	-3.6	29.0	0.0	29.0	
0.45703	-0.6	6209	25.5	29.0	-3.5	29.0	0.0	29.0	
0.46094	-0.6	6209	25.5	29.0	-3.5	29.0	0.0	29.0	
0.46484	-0.6	6209	25.5	29.0	-3.5	29.0	0.0	29.0	
0.46875	-0.5	6209	25.4	29.1	-3.7	29.1	0.0	29.1	
0.47266	-0.5	6209	25.5	29.1	-3.6	29.1	0.0	29.1	
0.47656	-0.5	6209	25.4	29.1	-3.7	29.1	0.0	29.1	
0.48047	-0.5	6209	25.4	29.1	-3.7	29.1	0.0	29.1	
0.48438	-0.6	6209	25.4	29.1	-3.7	29.1	0.0	29.1	
0.48828	-0.5	6209	25.4	29.2	-3.8	29.2	0.0	29.2	
0.49219	-0.5	6209	25.4	29.2	-3.8	29.2	0.0	29.2	
0.49609	-0.5	6209	25.4	29.2	-3.8	29.2	0.0	29.2	
0.50000	-0.5	6209	25.4	29.2	-3.8	29.2	0.0	29.2	
0.50391	-0.6	6209	25.4	29.3	-3.9	29.3	0.0	29.3	
0.50781	-0.6	6209	25.4	29.3	-3.9	29.3	0.0	29.3	
0.51172	-0.6	6209	25.4	29.3	-3.9	29.3	0.0	29.3	
0.51562	-0.6	6209	25.4	29.3	-3.9	29.3	0.0	29.3	
0.51953	-0.6	6209	25.4	29.3	-3.9	29.3	0.0	29.3	
0.52344	-0.7	6209	25.4	29.3	-3.9	29.3	0.0	29.3	
0.52734	-0.6	6209	25.5	29.4	-3.9	29.4	0.0	29.4	
0.53125	-0.6	6209	25.5	29.4	-3.9	29.4	0.0	29.4	
0.53516	-0.7	6209	25.5	29.4	-3.9	29.4	0.0	29.4	
0.53906	-0.6	6209	25.5	29.4	-3.9	29.4	0.0	29.4	
0.54297	-0.6	6209	25.5	29.4	-3.9	29.4	0.0	29.4	
0.54688	-0.6	6208	25.6	29.5	-3.9	29.5	0.0	29.5	
0.55078	-0.6	6208	25.6	29.5	-3.9	29.5	0.0	29.5	
0.55469	-0.6	6208	25.6	29.5	-3.9	29.5	0.0	29.5	
0.55859	-0.6	6208	25.6	29.5	-3.9	29.5	0.0	29.5	
0.56250	-0.6	6208	25.6	29.6	-4.0	29.6	0.0	29.6	
0.56641	-0.6	6208	25.6	29.6	-4.0	29.6	0.0	29.6	
0.57031	-0.6	6208	25.6	29.6	-4.0	29.6	0.0	29.6	
0.57422	-0.5	6208	25.6	29.6	-4.0	29.6	0.0	29.6	
0.57812	-0.5	6208	25.6	29.7	-4.1	29.7	0.0	29.7	
0.58203	-0.5	6208	25.6	29.7	-4.1	29.7	0.0	29.7	
0.58594	-0.5	6208	25.6	29.7	-4.1	29.7	0.0	29.7	
0.58984	-0.4	6208	25.5	29.8	-4.3	29.8	0.0	29.8	
0.59375	-0.4	6208	25.5	29.8	-4.3	29.8	0.0	29.8	
0.59766	-0.5	6208	25.5	29.9	-4.4	29.9	0.0	29.9	
0.60156	-0.5	6208	25.5	29.9	-4.4	29.9	0.0	29.9	
0.60547	-0.4	6208	25.5	29.9	-4.4	29.9	0.0	29.9	
0.60938	-0.5	6208	25.5	30.0	-4.5	30.0	0.0	30.0	
0.61328	-0.5	6208	25.4	30.0	-4.6	30.0	0.0	30.0	
0.61719	-0.5	6208	25.4	30.0	-4.6	30.0	0.0	30.0	
0.62109	-0.5	6208	25.5	30.1	-4.6	30.1	0.0	30.1	
0.62500	-0.6	6208	25.4	30.1	-4.7	30.1	0.0	30.1	
0.62891	-0.6	6208	25.4	30.1	-4.7	30.1	0.0	30.1	
0.63281	-0.6	6208	25.4	30.1	-4.7	30.1	0.0	30.1	
0.63672	-0.7	6208	25.4	30.1	-4.7	30.1	0.0	30.1	
0.64062	-0.7	6208	25.5	30.1	-4.6	30.1	0.0	30.1	
0.64453	-0.7	6208	25.5	30.1	-4.6	30.1	0.0	30.1	
0.64844	-0.7	6208	25.5	30.2	-4.7	30.2	0.0	30.2	
0.65234	-0.7	6208	25.5	30.2	-4.7	30.2	0.0	30.2	
0.65625	-0.8	6207	25.6	30.1	-4.5	30.1	0.0	30.1	
0.66016	-0.8	6207	25.6	30.2	-4.6	30.2	0.0	30.2	
0.66406	-0.7	6207	25.6	30.2	-4.6	30.2	0.0	30.2	
0.66797	-0.8	6207	25.6	30.2	-4.6	30.2	0.0	30.2	
0.67188	-0.8	6207	25.7	30.2	-4.5	30.2	0.0	30.2	
0.67578	-0.7	6207	25.7	30.2	-4.5	30.2	0.0	30.2	
0.67969	-0.7	6207	25.7	30.2	-4.5	30.2	0.0	30.2	
0.68359	-0.7	6207	25.7	30.2	-4.5	30.2	0.0	30.2	
0.68750	-0.6	6207	25.8	30.2	-4.4	30.2	0.0	30.2	
0.69141	-0.6	6207	25.8	30.2	-4.4	30.2	0.0	30.2	
0.69531	-0.6	6207	25.8	30.2	-4.4	30.2	0.0	30.2	
0.69922	-0.6	6207	25.8	30.3	-4.5	30.3	0.0	30.3	
0.70312	-0.5	6207	25.8	30.3	-4.5	30.3	0.0	30.3	
0.70703	-0.6	6207	25.8	30.3	-4.5	30.3	0.0	30.3	
0.71094	-0.5	6207	25.8	30.3	-4.5	30.3	0.0	30.3	
0.71484	-0.5	6207	25.8	30.3	-4.5	30.3	0.0	30.3	
0.71875	-0.5	6207	25.8	30.3	-4.5	30.3	0.0	30.3	
0.72266	-0.5	6207	25.8	30.3	-4.5	30.3	0.0	30.3	
0.72656	-0.5	6207	25.8	30.3	-4.5	30.3	0.0	30.3	
0.73047	-0.5	6207	25.8	30.3	-4.5	30.3	0.0	30.3	
0.73438	-0.5	6207	25.8	30.3	-4.5	30.3	0.0	30.3	
0.73828	-0.5	6207	25.8	30.3	-4.5	30.3	0.0	30.3	
0.74219	-0.6	6207	25.8	30.3	-4.5	30.3	0.0	30.3	
0.74609	-0.6	6207	25.8	30.3	-4.5	30.3	0.0	30.3	
0.75000	-0.6	6207	25.8	30.3	-4.5	30.3	0.0	30.3	
0.75391	-0.6	6206	25.8	30.3	-4.5	30.3	0.0	30.3	
0.75781	-0.6	6206	25.8	30.3	-4.5	30.3	0.0	30.3	
0.76172	-0.6	6206	25.8	30.3	-4.5	30.3	0.0	30.3	
0.76562	-0.6	6206	25.8	30.3	-4.5	30.3	0.0	30.3	
0.76953	-0.6	6206	25.8	30.3	-4.5	30.3	0.0	30.3	
0.77344	-0.5	6206	25.8	30.3	-4.5	30.3	0.0	30.3	
0.77734	-0.5	6206	25.8	30.3	-4.5	30.3	0.0	30.3	
0.78125	-0.5	6206	25.8	30.3	-4.5	30.3	0.0	30.3	
0.78516	-0.5	6206	25.8	30.3	-4.5	30.3	0.0	30.3	
0.78906	-0.5	6206	25.8	30.3	-4.5	30.3	0.0	30.3	
0.79297	-0.5	6206	25.8	30.2	-4.4	30.2	0.0	30.2	
0.79688	-0.5	6206	25.8	30.2	-4.4	30.2	0.0	30.2	
0.80078	-0.4	6206	25.7	30.2	-4.5	30.2	0.0	30.2	
0.80469	-0.4	6206	25.7	30.2	-4.5	30.2	0.0	30.2	
0.80859	-0.4	6206	25.7	30.2	-4.5	30.2	0.0	30.2	
0.81250	-0.4	6206	25.7	30.2	-4.5	30.2	0.0	30.2	
0.81641	-0.4	6206	25.7	30.2	-4.5	30.2	0.0	30.2	
0.82031	-0.5	6206	25.7	30.2	-4.5	30.2	0.0	30.2	
0.82422	-0.5	6206	25.6	30.2	-4.6	30.2	0.0	30.2	
0.82812	-0.5	6206	25.6	30.1	-4.5	30.1	0.0	30.1	
0.83203	-0.5	6206	25.6	30.1	-4.5	30.1	0.0	30.1	
0.83594	-0.5	6206	25.6	30.1	-4.5	30.1	0.0	30.1	
0.83984	-0.5	6206	25.6	30.1	-4.5	30.1	0.0	30.1	
0.84375	-0.5	6206	25.6	30.1	-4.5	30.1	0.0	30.1	
0.84766	-0.5	6206	25.6	30.1	-4.5	30.1	0.0	30.1	
0.85156	-0.6	6206	25.6	30.0	-4.4	30.0	0.0	30.0	
0.85547	-0.6	6206	25.6	30.0	-4.4	30.0	0.0	30.0	
0.85938	-0.6	6206	25.5	30.0	-4.5	30.0	0.0	30.0	
0.86328	-0.6	6206	25.6	30.0	-4.4	30.0	0.0	30.0	
0.86719	-0.6	6206	25.6	30.0	-4.4	30.0	0.0	30.0	
0.87109	-0.6	6205	25.6	30.0	-4.4	30.0	0.0	30.0	
0.87500	-0.6	6205	25.6	30.0	-4.4	30.0	0.0	30.0	
0.87891	-0.6	6205	25.6	30.0	-4.4	30.0	0.0	30.0	
0.88281	-0.6	6205	25.6	30.0	-4.4	30.0	0.0	30.0	
0.88672	-0.6	6205	25.6	30.0	-4.4	30.0	0.0	30.0	
0.89062	-0.6	6205	25.6	30.0	-4.4	30.0	0.0	30.0	
0.89453	-0.6	6205	25.6	30.0	-4.4	30.0	0.0	30.0	
0.89844	-0.6	6205	25.6	29.9	-4.3	29.9	0.0	29.9	
0.90234	-0.6	6205	25.6	29.9	-4.3	29.9	0.0	29.9	
0.90625	-0.6	6205	25.6	29.9	-4.3	29.9	0.0	29.9	
0.91016	-0.6	6205	25.6	29.9	-4.3	29.9	0.0	29.9	
0.91406	-0.6	6205	25.6	29.9	-4.3	29.9	0.0	29.9	
0.91797	-0.6	6205	25.6	29.9	-4.3	29.9	0.0	29.9	
0.92188	-0.5	6205	25.6	29.9	-4.3	29.9	0.0	29.9	
0.92578	-0.5	6205	25.6	29.9	-4.3	29.9	0.0	29.9	
0.92969	-0.5	6205	25.6	29.9	-4.3	29.9	0.0	29.9	
0.93359	-0.5	6205	25.6	29.9	-4.3	29.9	0.0	29.9	
0.93750	-0.6	6205	25.6	29.8	-4.2	29.8	0.0	29.8	
0.94141	-0.6	6205	25.6	29.8	-4.2	29.8	0.0	29.8	
0.94531	-0.6	6205	25.6	29.8	-4.2	29.8	0.0	29.8	
0.94922	-0.5	6205	25.6	29.8	-4.2	29.8	0.0	29.8	
0.95312	-0.5	6205	25.6	29.8	-4.2	29.8	0.0	29.8	
0.95703	-0.6	6205	25.6	29.8	-4.2	29.8	0.0	29.8	
0.96094	-0.6	6205	25.6	29.8	-4.2	29.8	0.0	29.8	
0.96484	-0.6	6205	25.6	29.8	-4.2	29.8	0.0	29.8	
0.96875	-0.6	6205	25.6	29.7	-4.1	29.7	0.0	29.7	
0.97266	-0.6	6204	25.6	29.7	-4.1	29.7	0.0	29.7	
0.97656	-0.6	6204	25.6	29.7	-4.1	29.7	0.0	29.7	
0.98047	-0.6	6204	25.6	29.7	-4.1	29.7	0.0	29.7	
0.98438	-0.6	6204	25.6	29.7	-4.1	29.7	0.0	29.7	
0.98828	-0.6	6204	25.6	29.7	-4.1	29.7	0.0	29.7	
0.99219	-0.6	6204	25.6	29.7	-4.1	29.7	0.0	29.7	
0.99609	-0.6	6204	25.7	29.7	-4.0	29.7	0.0	29.7	
1.00000	-0.6	6204	25.6	29.7	-4.1	29.7	0.0	29.7	
1.00391	-0.6	6204	25.7	29.6	-3.9	29.6	0.0	29.6	
1.00781	-0.6	6204	25.7	29.6	-3.9	29.6	0.0	29.6	
1.01172	-0.6	6204	25.6	29.6	-4.0	29.6	0.0	29.6	
1.01562	-0.5	6204	25.7	29.6	-3.9	29.6	0.0	29.6	
1.01953	-0.5	6204	25.7	29.6	-3.9	29.6	0.0	29.6	
1.02344	-0.5	6204	25.6	29.6	-4.0	29.6	0.0	29.6	
1.02734	-0.5	6204	25.6	29.6	-4.0	29.6	0.0	29.6	
1.03125	-0.5	6204	25.6	29.6	-4.0	29.6	0.0	29.6	
1.03516	-0.5	6204	25.6	29.6	-4.0	29.6	0.0	29.6	
1.03906	-0.5	6204	25.6	29.6	-4.0	29.6	0.0	29.6	
1.04297	-0.5	6204	25.6	29.5	-3.9	29.5	0.0	29.5	
1.04688	-0.5	6204	25.6	29.5	-3.9	29.5	0.0	29.5	
1.05078	-0.5	6204	25.6	29.5	-3.9	29.5	0.0	29.5	
1.05469	-0.5	6204	25.5	29.5	-4.0	29.5	0.0	29.5	
1.05859	-0.5	6204	25.5	29.5	-4.0	29.5	0.0	29.5	
1.06250	-0.5	6204	25.5	29.5	-4.0	29.5	0.0	29.5	
1.06641	-0.6	6204	25.5	29.5	-4.0	29.5	0.0	29.5	
1.07031	-0.6	6204	25.5	29.5	-4.0	29.5	0.0	29.5	
1.07422	-0.6	6204	25.5	29.5	-4.0	29.5	0.0	29.5	
1.07812	-0.6	6204	25.5	29.5	-4.0	29.5	0.0	29.5	
1.08203	-0.6	6203	25.6	29.4	-3.8	29.4	0.0	29.4	
1.08594	-0.6	6203	25.6	29.4	-3.8	29.4	0.0	29.4	
1.08984	-0.6	6203	25.6	29.4	-3.8	29.4	0.0	29.4	
1.09375	-0.6	6203	25.6	29.4	-3.8	29.4	0.0	29.4	
1.09766	-0.6	6203	25.6	29.4	-3.8	29.4	0.0	29.4	
1.10156	-0.6	6203	25.6	29.4	-3.8	29.4	0.0	29.4	
1.10547	-0.6	6203	25.6	29.4	-3.8	29.4	0.0	29.4	
1.10938	-0.6	6203	25.6	29.4	-3.8	29.4	0.0	29.4	
1.11328	-0.5	6203	25.6	29.4	-3.8	29.4	0.0	29.4	
1.11719	-0.6	6203	25.6	29.4	-3.8	29.4	0.0	29.4	
1.12109	-0.5	6203	25.6	29.4	-3.8	29.4	0.0	29.4	
1.12500	-0.5	6203	25.6	29.4	-3.8	29.4	0.0	29.4	
1.12891	-0.5	6203	25.5	29.5	-4.0	29.5	0.0	29.5	
1.13281	-0.5	6203	25.5	29.5	-4.0	29.5	0.0	29.5	
1.13672	-0.4	6203	25.5	29.5	-4.0	29.5	0.0	29.5	
1.14062	-0.4	6203	25.5	29.5	-4.0	29.5	0.0	29.5	
1.14453	-0.4	6203	25.5	29.5	-4.0	29.5	0.0	29.5	
1.14844	-0.4	6203	25.4	29.5	-4.1	29.5	0.0	29.5	
1.15234	-0.4	6203	25.4	29.5	-4.1	29.5	0.0	29.5	
1.15625	-0.4	6203	25.4	29.5	-4.1	29.5	0.0	29.5	
1.16016	-0.4	6203	25.4	29.5	-4.1	29.5	0.0	29.5	
1.16406	-0.5	6203	25.4	29.5	-4.1	29.5	0.0	29.5	
1.16797	-0.5	6203	25.4	29.5	-4.1	29.5	0.0	29.5	
1.17188	-0.5	6203	25.3	29.5	-4.2	29.5	0.0	29.5	
1.17578	-0.5	6203	25.3	29.5	-4.2	29.5	0.0	29.5	
1.17969	-0.6	6203	25.3	29.5	-4.2	29.5	0.0	29.5	
1.18359	-0.6	6203	25.4	29.5	-4.1	29.5	0.0	29.5	
1.18750	-0.6	6203	25.4	29.5	-4.1	29.5	0.0	29.5	
1.19141	-0.7	6203	25.4	29.5	-4.1	29.5	0.0	29.5	
1.19531	-0.7	6202	25.4	29.5	-4.1	29.5	0.0	29.5	
1.19922	-0.8	6202	25.4	29.5	-4.1	29.5	0.0	29.5	
1.20312	-0.8	6202	25.5	29.5	-4.0	29.5	0.0	29.5	
1.20703	-0.7	6202	25.5	29.4	-3.9	29.4	0.0	29.4	
1.21094	-0.7	6202	25.5	29.5	-4.0	29.5	0.0	29.5	
1.21484	-0.7	6202	25.5	29.4	-3.9	29.4	0.0	29.4	
1.21875	-0.7	6202	25.6	29.4	-3.8	29.4	0.0	29.4	
1.22266	-0.6	6202	25.6	29.4	-3.8	29.4	0.0	29.4	
1.22656	-0.6	6202	25.6	29.4	-3.8	29.4	0.0	29.4	
1.23047	-0.6	6202	25.6	29.4	-3.8	29.4	0.0	29.4	
1.23438	-0.6	6202	25.6	29.4	-3.8	29.4	0.0	29.4	
1.23828	-0.6	6202	25.6	29.4	-3.8	29.4	0.0	29.4	
1.24219	-0.5	6202	25.6	29.4	-3.8	29.4	0.0	29.4	
1.24609	-0.5	6202	25.6	29.3	-3.7	29.3	0.0	29.3	
1.25000	-0.5	6202	25.6	29.3	-3.7	29.3	0.0	29.3	
1.25391	-0.5	6202	25.6	29.3	-3.7	29.3	0.0	29.3	
1.25781	-0.5	6202	25.6	29.3	-3.7	29.3	0.0	29.3	
1.26172	-0.5	6202	25.6	29.3	-3.7	29.3	0.0	29.3	
1.26562	-0.5	6202	25.6	29.3	-3.7	29.3	0.0	29.3	
1.26953	-0.5	6202	25.6	29.3	-3.7	29.3	0.0	29.3	
1.27344	-0.5	6202	25.6	29.2	-3.6	29.2	0.0	29.2	
1.27734	-0.5	6202	25.6	29.2	-3.6	29.2	0.0	29.2	
1.28125	-0.5	6202	25.5	29.2	-3.7	29.2	0.0	29.2	
1.28516	-0.5	6202	25.5	29.2	-3.7	29.2	0.0	29.2	
1.28906	-0.5	6202	25.5	29.2	-3.7	29.2	0.0	29.2	
1.29297	-0.5	6202	25.5	29.1	-3.6	29.1	0.0	29.1	
1.29688	-0.5	6202	25.5	29.1	-3.6	29.1	0.0	29.1	
1.30078	-0.6	6201	25.5	29.1	-3.6	29.1	0.0	29.1	
1.30469	-0.6	6201	25.5	29.1	-3.6	29.1	0.0	29.1	
1.30859	-0.5	6201	25.5	29.1	-3.6	29.1	0.0	29.1	
1.31250	-0.5	6201	25.5	29.1	-3.6	29.1	0.0	29.1	
1.31641	-0.5	6201	25.5	29.0	-3.5	29.0	0.0	29.0	
1.32031	-0.5	6201	25.5	29.0	-3.5	29.0	0.0	29.0	
1.32422	-0.5	6201	25.5	29.0	-3.5	29.0	0.0	29.0	
1.32812	-0.5	6201	25.5	29.0	-3.5	29.0	0.0	29.0	
1.33203	-0.5	6201	25.5	28.9	-3.4	28.9	0.0	28.9	
1.33594	-0.5	6201	25.4	28.9	-3.5	28.9	0.0	28.9	
1.33984	-0.5	6201	25.4	28.9	-3.5	28.9	0.0	28.9	
1.34375	-0.5	6201	25.4	28.9	-3.5	28.9	0.0	28.9	
1.34766	-0.5	6201	25.4	28.8	-3.4	28.8	0.0	28.8	
1.35156	-0.5	6201	25.4	28.8	-3.4	28.8	0.0	28.8	
1.35547	-0.5	6201	25.4	28.8	-3.4	28.8	0.0	28.8	
1.35938	-0.5	6201	25.3	28.8	-3.5	28.8	0.0	28.8	
1.36328	-0.5	6201	25.3	28.7	-3.4	28.7	0.0	28.7	
1.36719	-0.5	6201	25.3	28.7	-3.4	28.7	0.0	28.7	
1.37109	-0.5	6201	25.3	28.7	-3.4	28.7	0.0	28.7	
1.37500	-0.5	6201	25.3	28.7	-3.4	28.7	0.0	28.7	
1.37891	-0.5	6201	25.3	28.6	-3.3	28.6	0.0	28.6	
1.38281	-0.6	6201	25.2	28.6	-3.4	28.6	0.0	28.6	
1.38672	-0.6	6201	25.3	28.6	-3.3	28.6	0.0	28.6	
1.39062	-0.6	6201	25.3	28.6	-3.3	28.6	0.0	28.6	
1.39453	-0.6	6201	25.3	28.5	-3.2	28.5	0.0	28.5	
1.39844	-0.6	6201	25.3	28.5	-3.2	28.5	0.0	28.5	
1.40234	-0.6	6201	25.3	28.5	-3.2	28.5	0.0	28.5	
1.40625	-0.7	6201	25.3	28.5	-3.2	28.5	0.0	28.5	
1.41016	-0.6	6200	25.3	28.5	-3.2	28.5	0.0	28.5	
1.41406	-0.7	6200	25.3	28.4	-3.1	28.4	0.0	28.4	
1.41797	-0.7	6200	25.4	28.4	-3.0	28.4	0.0	28.4	
1.42188	-0.7	6200	25.4	28.4	-3.0	28.4	0.0	28.4	
1.42578	-0.7	6200	25.4	28.4	-3.0	28.4	0.0	28.4	
1.42969	-0.7	6200	25.4	28.3	-2.9	28.3	0.0	28.3	
1.43359	-0.7	6200	25.4	28.3	-2.9	28.3	0.0	28.3	
1.43750	-0.7	6200	25.5	28.3	-2.8	28.3	0.0	28.3	
1.44141	-0.7	6200	25.5	28.3	-2.8	28.3	0.0	28.3	
1.44531	-0.7	6200	25.5	28.3	-2.8	28.3	0.0	28.3	
1.44922	-0.6	6200	25.5	28.3	-2.8	28.3	0.0	28.3	
1.45312	-0.6	6200	25.5	28.3	-2.8	28.3	0.0	28.3	
1.45703	-0.7	6200	25.5	28.3	-2.8	28.3	0.0	28.3	
1.46094	-0.6	6200	25.5	28.2	-2.7	28.2	0.0	28.2	
1.46484	-0.6	6200	25.6	28.2	-2.6	28.2	0.0	28.2	
1.46875	-0.6	6200	25.6	28.2	-2.6	28.2	0.0	28.2	
1.47266	-0.6	6200	25.6	28.2	-2.6	28.2	0.0	28.2	
1.47656	-0.5	6200	25.6	28.2	-2.6	28.2	0.0	28.2	
1.48047	-0.6	6200	25.6	28.1	-2.5	28.1	0.0	28.1	
1.48438	-0.6	6200	25.6	28.1	-2.5	28.1	0.0	28.1	
1.48828	-0.6	6200	25.6	28.1	-2.5	28.1	0.0	28.1	
1.49219	-0.5	6200	25.6	28.1	-2.5	28.1	0.0	28.1	
1.49609	-0.6	6200	25.6	28.1	-2.5	28.1	0.0	28.1	
1.50000	-0.6	6200	25.6	28.1	-2.5	28.1	0.0	28.1	
1.50391	-0.6	6200	25.6	28.0	-2.4	28.0	0.0	28.0	
1.50781	-0.6	6199	25.6	28.0	-2.4	28.0	0.0	28.0	
1.51172	-0.6	6199	25.6	28.0	-2.4	28.0	0.0	28.0	
1.51562	-0.6	6199	25.6	28.0	-2.4	28.0	0.0	28.0	
1.51953	-0.6	6199	25.6	28.0	-2.4	28.0	0.0	28.0	
1.52344	-0.6	6199	25.6	27.9	-2.3	27.9	0.0	27.9	
1.52734	-0.7	6199	25.7	27.9	-2.2	27.9	0.0	27.9	
1.53125	-0.6	6199	25.7	27.9	-2.2	27.9	0.0	27.9	
1.53516	-0.6	6199	25.7	27.9	-2.2	27.9	0.0	27.9	
1.53906	-0.6	6199	25.7	27.8	-2.1	27.8	0.0	27.8	
1.54297	-0.6	6199	25.7	27.8	-2.1	27.8	0.0	27.8	
1.54688	-0.6	6199	25.7	27.8	-2.1	27.8	0.0	27.8	
1.55078	-0.5	6199	25.7	27.8	-2.1	27.8	0.0	27.8	
1.55469	-0.6	6199	25.7	27.8	-2.1	27.8	0.0	27.8	
1.55859	-0.6	6199	25.7	27.7	-2.0	27.7	0.0	27.7	
1.56250	-0.5	6199	25.7	27.7	-2.0	27.7	0.0	27.7	
1.56641	-0.5	6199	25.7	27.7	-2.0	27.7	0.0	27.7	
1.57031	-0.5	6199	25.7	27.7	-2.0	27.7	0.0	27.7	
1.57422	-0.5	6199	25.7	27.7	-2.0	27.7	0.0	27.7	
1.57812	-0.5	6199	25.7	27.7	-2.0	27.7	0.0	27.7	
